0  2393
1  0
2  0
3  0
4  0
5  0
6  0
7  0
8  0
9  0
10  0
11  0
12  0
13  0
14  0
15  0
16  0
17  0
18  0
19  0
20  0
21  0
22  0
23  0
24  0
25  0
26  0
27  0
28  0
29  0
30  0
31  0
32  0
33  0
34  0
35  0
36  0
37  0
38  0
39  0
40  0
41  0
42  0
43  0
44  0
45  0
46  0
47  0
48  0
49  0
50  0
51  0
52  0
53  0
54  0
55  0
56  0
57  0
58  0
59  0
60  0
61  0
62  0
63  0
64  0
65  0
66  0
67  0
68  0
69  0
70  0
71  0
72  0
73  0
74  0
75  0
76  0
77  0
78  0
79  0
80  0
81  0
82  0
83  0
84  0
85  0
86  0
87  0
88  0
89  0
90  0
91  0
92  0
93  0
94  0
95  0
96  0
97  0
98  0
99  0
100  0
101  0
102  0
103  0
104  0
105  0
106  0
107  0
108  0
109  0
110  0
111  0
112  0
113  0
114  0
115  0
116  0
117  0
118  0
119  0
120  0
121  0
122  0
123  0
124  0
125  0
126  0
127  0
128  0
129  0
130  0
131  0
132  0
133  0
134  0
135  0
136  0
137  0
138  0
139  0
140  0
141  0
142  0
143  0
144  0
145  0
146  0
147  0
148  0
149  0
150  0
151  0
152  0
153  0
154  0
155  0
156  0
157  0
158  0
159  0
160  0
161  0
162  0
163  0
164  0
165  0
166  0
167  0
168  0
169  0
170  0
171  0
172  0
173  0
174  0
175  0
176  0
177  0
178  0
179  0
180  0
181  0
182  0
183  0
184  0
185  0
186  0
187  0
188  0
189  0
190  0
191  0
192  0
193  0
194  0
195  0
196  0
197  0
198  0
199  0
200  0
201  0
202  0
203  0
204  0
205  0
206  0
207  0
208  0
209  0
210  0
211  0
212  0
213  0
214  0
215  0
216  0
217  0
218  0
219  0
220  0
221  0
222  0
223  0
224  0
225  0
226  0
227  0
228  0
229  0
230  0
231  0
232  0
233  0
234  0
235  0
236  0
237  0
238  0
239  0
240  0
241  0
242  0
243  0
244  0
245  0
246  0
247  0
248  0
249  0
250  0
251  0
252  0
253  0
254  0
255  0
256  0
257  0
258  0
259  0
260  0
261  0
262  0
263  0
264  0
265  0
266  0
267  0
268  0
269  0
270  0
271  0
272  0
273  0
274  0
275  0
276  0
277  0
278  0
279  0
280  0
281  0
282  0
283  0
284  0
285  0
286  0
287  0
288  0
289  0
290  0
291  0
292  0
293  0
294  0
295  0
296  0
297  0
298  0
299  0
300  0
301  0
302  0
303  0
304  0
305  0
306  0
307  0
308  0
309  0
310  0
311  0
312  0
313  0
314  0
315  0
316  0
317  0
318  0
319  0
320  0
321  0
322  0
323  0
324  0
325  0
326  0
327  0
328  0
329  0
330  0
331  0
332  0
333  0
334  0
335  0
336  0
337  0
338  0
339  0
340  0
341  0
342  0
343  0
344  0
345  0
346  0
347  0
348  0
349  0
350  0
351  0
352  0
353  0
354  0
355  0
356  0
357  0
358  0
359  0
360  0
361  0
362  0
363  0
364  0
365  0
366  0
367  0
368  0
369  0
370  0
371  0
372  0
373  0
374  0
375  0
376  0
377  0
378  0
379  0
380  0
381  0
382  0
383  0
384  0
385  0
386  0
387  0
388  0
389  0
390  0
391  0
392  0
393  0
394  0
395  0
396  0
397  0
398  0
399  0
400  0
401  0
402  0
403  0
404  0
405  0
406  0
407  0
408  0
409  0
410  0
411  0
412  0
413  0
414  0
415  0
416  0
417  0
418  0
419  0
420  0
421  0
422  0
423  0
424  0
425  0
426  0
427  0
428  0
429  0
430  0
431  0
432  0
433  0
434  0
435  0
436  0
437  0
438  0
439  0
440  0
441  0
442  0
443  0
444  0
445  0
446  0
447  0
448  0
449  0
450  0
451  0
452  0
453  0
454  0
455  0
456  0
457  0
458  0
459  0
460  0
461  0
462  0
463  0
464  0
465  0
466  0
467  0
468  0
469  0
470  0
471  0
472  0
473  0
474  0
475  0
476  0
477  0
478  0
479  0
480  0
481  0
482  0
483  0
484  0
485  0
486  0
487  0
488  0
489  0
490  0
491  0
492  0
493  0
494  0
495  0
496  0
497  0
498  0
499  0
500  0
501  0
502  0
503  0
504  0
505  0
506  0
507  0
508  0
509  0
510  0
511  0
512  0
513  0
514  0
515  0
516  0
517  0
518  0
519  0
520  0
521  0
522  0
523  0
524  0
525  0
526  0
527  0
528  0
529  0
530  0
531  0
532  0
533  0
534  0
535  0
536  0
537  0
538  0
539  0
540  0
541  0
542  0
543  0
544  0
545  0
546  0
547  0
548  0
549  0
550  0
551  0
552  0
553  0
554  0
555  0
556  0
557  0
558  0
559  0
560  0
561  1
562  0
563  1
564  0
565  1
566  0
567  1
568  11
569  35
570  55
571  119
572  251
573  723
574  1267
575  1232
576  1187
577  1215
578  1104
579  1077
580  1074
581  1076
582  1009
583  1018
584  1000
585  978
586  948
587  1023
588  909
589  916
590  890
591  865
592  866
593  850
594  840
595  827
596  816
597  814
598  790
599  814
600  715
601  724
602  740
603  730
604  699
605  687
606  690
607  713
608  694
609  702
610  651
611  640
612  655
613  648
614  643
615  645
616  619
617  639
618  623
619  595
620  609
621  593
622  610
623  613
624  551
625  580
626  561
627  557
628  559
629  550
630  537
631  570
632  521
633  557
634  538
635  566
636  547
637  586
638  546
639  524
640  566
641  493
642  497
643  480
644  483
645  426
646  471
647  465
648  464
649  492
650  474
651  463
652  469
653  425
654  435
655  408
656  430
657  416
658  435
659  385
660  423
661  410
662  401
663  401
664  395
665  388
666  421
667  403
668  385
669  391
670  400
671  395
672  445
673  374
674  396
675  397
676  372
677  370
678  384
679  359
680  414
681  373
682  339
683  374
684  371
685  387
686  344
687  392
688  387
689  347
690  344
691  336
692  355
693  321
694  329
695  339
696  378
697  337
698  316
699  343
700  320
701  314
702  313
703  339
704  311
705  315
706  292
707  277
708  307
709  321
710  273
711  298
712  261
713  315
714  271
715  282
716  240
717  312
718  258
719  225
720  277
721  258
722  254
723  242
724  265
725  263
726  251
727  227
728  241
729  240
730  257
731  253
732  210
733  255
734  200
735  219
736  230
737  224
738  268
739  227
740  235
741  214
742  230
743  203
744  229
745  234
746  221
747  219
748  213
749  216
750  215
751  213
752  232
753  207
754  197
755  230
756  195
757  215
758  214
759  218
760  203
761  198
762  202
763  190
764  206
765  205
766  158
767  219
768  172
769  201
770  193
771  188
772  183
773  178
774  191
775  167
776  210
777  202
778  194
779  169
780  192
781  165
782  190
783  165
784  168
785  143
786  171
787  162
788  180
789  169
790  167
791  172
792  163
793  180
794  171
795  159
796  171
797  164
798  150
799  117
800  156
801  141
802  154
803  155
804  149
805  155
806  174
807  141
808  144
809  150
810  136
811  146
812  154
813  135
814  135
815  122
816  150
817  127
818  137
819  144
820  164
821  127
822  144
823  145
824  132
825  147
826  113
827  154
828  127
829  131
830  142
831  120
832  119
833  118
834  135
835  145
836  136
837  132
838  116
839  114
840  116
841  96
842  105
843  119
844  117
845  130
846  118
847  121
848  95
849  119
850  136
851  103
852  120
853  107
854  111
855  89
856  111
857  110
858  113
859  124
860  116
861  82
862  114
863  103
864  113
865  105
866  86
867  114
868  103
869  102
870  87
871  93
872  85
873  103
874  74
875  68
876  93
877  87
878  92
879  94
880  74
881  101
882  88
883  91
884  81
885  93
886  94
887  85
888  93
889  87
890  74
891  85
892  78
893  88
894  71
895  73
896  93
897  76
898  89
899  73
900  75
901  73
902  83
903  70
904  79
905  80
906  60
907  69
908  68
909  62
910  65
911  75
912  66
913  71
914  74
915  61
916  71
917  70
918  80
919  67
920  79
921  78
922  53
923  55
924  63
925  66
926  65
927  63
928  70
929  65
930  64
931  68
932  57
933  66
934  61
935  50
936  59
937  75
938  63
939  58
940  58
941  60
942  60
943  57
944  54
945  48
946  56
947  64
948  51
949  64
950  41
951  48
952  56
953  69
954  55
955  57
956  39
957  44
958  49
959  56
960  53
961  64
962  48
963  40
964  42
965  54
966  49
967  38
968  45
969  45
970  42
971  54
972  55
973  49
974  49
975  53
976  38
977  44
978  39
979  40
980  36
981  38
982  45
983  42
984  44
985  43
986  41
987  38
988  43
989  32
990  37
991  47
992  40
993  40
994  44
995  49
996  39
997  44
998  43
999  42
1000  34
1001  36
1002  45
1003  40
1004  42
1005  31
1006  43
1007  45
1008  37
1009  37
1010  42
1011  42
1012  41
1013  30
1014  38
1015  28
1016  32
1017  39
1018  32
1019  34
1020  28
1021  28
1022  41
1023  35
1024  35
1025  36
1026  41
1027  30
1028  29
1029  35
1030  26
1031  35
1032  31
1033  23
1034  36
1035  26
1036  31
1037  40
1038  28
1039  31
1040  31
1041  31
1042  35
1043  28
1044  25
1045  28
1046  22
1047  41
1048  25
1049  36
1050  34
1051  28
1052  27
1053  37
1054  33
1055  31
1056  29
1057  30
1058  27
1059  32
1060  23
1061  30
1062  18
1063  32
1064  25
1065  20
1066  35
1067  29
1068  30
1069  27
1070  24
1071  24
1072  27
1073  26
1074  27
1075  19
1076  19
1077  15
1078  29
1079  19
1080  17
1081  16
1082  21
1083  21
1084  22
1085  36
1086  36
1087  22
1088  23
1089  26
1090  27
1091  27
1092  20
1093  21
1094  25
1095  20
1096  28
1097  25
1098  29
1099  21
1100  20
1101  31
1102  22
1103  24
1104  28
1105  21
1106  31
1107  27
1108  17
1109  21
1110  23
1111  22
1112  16
1113  32
1114  20
1115  24
1116  26
1117  18
1118  29
1119  21
1120  22
1121  19
1122  18
1123  18
1124  25
1125  23
1126  22
1127  19
1128  20
1129  28
1130  27
1131  21
1132  21
1133  24
1134  19
1135  13
1136  25
1137  23
1138  16
1139  17
1140  20
1141  21
1142  20
1143  20
1144  15
1145  10
1146  19
1147  14
1148  22
1149  22
1150  20
1151  15
1152  20
1153  20
1154  14
1155  22
1156  17
1157  24
1158  18
1159  13
1160  15
1161  20
1162  19
1163  19
1164  18
1165  22
1166  17
1167  24
1168  22
1169  19
1170  19
1171  23
1172  12
1173  18
1174  23
1175  25
1176  9
1177  11
1178  22
1179  21
1180  12
1181  14
1182  12
1183  16
1184  17
1185  22
1186  18
1187  16
1188  11
1189  19
1190  20
1191  17
1192  13
1193  18
1194  20
1195  19
1196  23
1197  16
1198  11
1199  18
1200  15
1201  11
1202  18
1203  11
1204  14
1205  15
1206  15
1207  12
1208  12
1209  14
1210  18
1211  17
1212  18
1213  15
1214  14
1215  14
1216  13
1217  11
1218  9
1219  18
1220  13
1221  5
1222  8
1223  8
1224  19
1225  16
1226  17
1227  12
1228  11
1229  12
1230  14
1231  9
1232  8
1233  18
1234  19
1235  12
1236  12
1237  2
1238  11
1239  12
1240  10
1241  12
1242  8
1243  13
1244  13
1245  11
1246  17
1247  10
1248  9
1249  19
1250  14
1251  16
1252  11
1253  15
1254  8
1255  13
1256  10
1257  11
1258  8
1259  15
1260  14
1261  14
1262  12
1263  9
1264  11
1265  15
1266  14
1267  8
1268  20
1269  13
1270  11
1271  12
1272  13
1273  12
1274  17
1275  11
1276  12
1277  8
1278  10
1279  10
1280  17
1281  15
1282  15
1283  11
1284  11
1285  12
1286  17
1287  10
1288  8
1289  11
1290  16
1291  5
1292  16
1293  18
1294  10
1295  11
1296  16
1297  15
1298  15
1299  18
1300  10
1301  8
1302  8
1303  5
1304  14
1305  6
1306  20
1307  10
1308  9
1309  3
1310  10
1311  9
1312  18
1313  6
1314  14
1315  11
1316  10
1317  8
1318  8
1319  10
1320  8
1321  8
1322  8
1323  8
1324  13
1325  15
1326  9
1327  8
1328  9
1329  6
1330  7
1331  3
1332  6
1333  10
1334  9
1335  12
1336  9
1337  9
1338  11
1339  9
1340  8
1341  8
1342  8
1343  5
1344  9
1345  12
1346  8
1347  17
1348  6
1349  7
1350  10
1351  9
1352  10
1353  12
1354  10
1355  11
1356  4
1357  10
1358  10
1359  7
1360  8
1361  10
1362  11
1363  18
1364  8
1365  10
1366  11
1367  13
1368  13
1369  14
1370  7
1371  6
1372  12
1373  9
1374  17
1375  9
1376  4
1377  11
1378  8
1379  6
1380  12
1381  10
1382  6
1383  12
1384  12
1385  14
1386  9
1387  9
1388  4
1389  6
1390  14
1391  12
1392  15
1393  5
1394  8
1395  14
1396  10
1397  5
1398  10
1399  6
1400  7
1401  9
1402  9
1403  12
1404  7
1405  7
1406  12
1407  5
1408  9
1409  5
1410  8
1411  7
1412  9
1413  10
1414  9
1415  5
1416  4
1417  7
1418  5
1419  9
1420  4
1421  6
1422  4
1423  8
1424  6
1425  5
1426  6
1427  5
1428  9
1429  8
1430  4
1431  5
1432  11
1433  14
1434  11
1435  7
1436  3
1437  10
1438  7
1439  8
1440  12
1441  6
1442  12
1443  12
1444  8
1445  6
1446  4
1447  6
1448  4
1449  5
1450  12
1451  6
1452  8
1453  7
1454  8
1455  6
1456  5
1457  3
1458  5
1459  12
1460  4
1461  9
1462  6
1463  0
1464  4
1465  7
1466  9
1467  1
1468  9
1469  10
1470  4
1471  9
1472  8
1473  6
1474  7
1475  4
1476  5
1477  9
1478  7
1479  5
1480  9
1481  11
1482  9
1483  7
1484  8
1485  7
1486  6
1487  7
1488  8
1489  1
1490  5
1491  8
1492  4
1493  5
1494  2
1495  5
1496  1
1497  5
1498  4
1499  5
1500  7
1501  3
1502  5
1503  7
1504  8
1505  5
1506  6
1507  7
1508  5
1509  7
1510  5
1511  9
1512  13
1513  9
1514  7
1515  6
1516  7
1517  8
1518  5
1519  7
1520  4
1521  9
1522  10
1523  5
1524  4
1525  6
1526  3
1527  6
1528  5
1529  8
1530  8
1531  9
1532  5
1533  7
1534  9
1535  6
1536  12
1537  3
1538  4
1539  4
1540  7
1541  7
1542  2
1543  7
1544  3
1545  6
1546  3
1547  4
1548  2
1549  7
1550  10
1551  6
1552  3
1553  5
1554  10
1555  8
1556  7
1557  7
1558  7
1559  4
1560  6
1561  7
1562  5
1563  4
1564  4
1565  5
1566  2
1567  6
1568  11
1569  4
1570  8
1571  4
1572  4
1573  6
1574  9
1575  9
1576  3
1577  6
1578  4
1579  7
1580  8
1581  8
1582  4
1583  7
1584  8
1585  7
1586  4
1587  11
1588  6
1589  9
1590  8
1591  5
1592  6
1593  6
1594  6
1595  8
1596  12
1597  5
1598  10
1599  10
1600  7
1601  9
1602  3
1603  9
1604  6
1605  7
1606  6
1607  11
1608  10
1609  8
1610  5
1611  9
1612  6
1613  6
1614  10
1615  7
1616  6
1617  6
1618  14
1619  6
1620  6
1621  5
1622  8
1623  8
1624  10
1625  7
1626  6
1627  10
1628  7
1629  7
1630  5
1631  4
1632  2
1633  8
1634  6
1635  8
1636  9
1637  5
1638  7
1639  5
1640  6
1641  4
1642  7
1643  8
1644  4
1645  4
1646  9
1647  4
1648  6
1649  9
1650  7
1651  6
1652  7
1653  7
1654  5
1655  5
1656  6
1657  13
1658  5
1659  4
1660  4
1661  3
1662  4
1663  8
1664  6
1665  5
1666  3
1667  8
1668  7
1669  11
1670  2
1671  5
1672  10
1673  13
1674  5
1675  10
1676  7
1677  3
1678  7
1679  5
1680  7
1681  6
1682  9
1683  5
1684  7
1685  5
1686  13
1687  7
1688  5
1689  3
1690  11
1691  5
1692  7
1693  6
1694  5
1695  5
1696  10
1697  8
1698  9
1699  11
1700  6
1701  9
1702  8
1703  7
1704  7
1705  14
1706  9
1707  9
1708  7
1709  5
1710  5
1711  10
1712  5
1713  6
1714  8
1715  4
1716  11
1717  7
1718  3
1719  6
1720  3
1721  7
1722  8
1723  3
1724  11
1725  8
1726  4
1727  8
1728  7
1729  3
1730  11
1731  6
1732  4
1733  8
1734  6
1735  11
1736  7
1737  3
1738  3
1739  7
1740  5
1741  8
1742  4
1743  8
1744  7
1745  7
1746  8
1747  6
1748  6
1749  7
1750  9
1751  6
1752  8
1753  10
1754  7
1755  7
1756  5
1757  6
1758  5
1759  8
1760  7
1761  3
1762  4
1763  6
1764  5
1765  7
1766  8
1767  4
1768  4
1769  6
1770  2
1771  2
1772  7
1773  5
1774  8
1775  3
1776  7
1777  3
1778  6
1779  7
1780  3
1781  8
1782  6
1783  3
1784  4
1785  6
1786  7
1787  8
1788  6
1789  3
1790  12
1791  5
1792  5
1793  5
1794  2
1795  1
1796  5
1797  10
1798  4
1799  6
1800  6
1801  3
1802  5
1803  7
1804  4
1805  7
1806  2
1807  7
1808  6
1809  7
1810  4
1811  4
1812  5
1813  6
1814  4
1815  6
1816  2
1817  8
1818  6
1819  4
1820  5
1821  4
1822  3
1823  6
1824  3
1825  4
1826  7
1827  11
1828  3
1829  8
1830  3
1831  7
1832  5
1833  4
1834  2
1835  6
1836  4
1837  5
1838  7
1839  1
1840  4
1841  3
1842  3
1843  6
1844  4
1845  1
1846  6
1847  1
1848  3
1849  4
1850  2
1851  4
1852  9
1853  6
1854  7
1855  6
1856  5
1857  3
1858  9
1859  2
1860  4
1861  4
1862  10
1863  3
1864  6
1865  9
1866  3
1867  6
1868  6
1869  1
1870  9
1871  2
1872  10
1873  3
1874  10
1875  3
1876  2
1877  6
1878  2
1879  7
1880  2
1881  7
1882  9
1883  4
1884  8
1885  6
1886  7
1887  4
1888  5
1889  7
1890  3
1891  11
1892  3
1893  8
1894  8
1895  7
1896  4
1897  3
1898  8
1899  6
1900  7
1901  7
1902  4
1903  4
1904  7
1905  9
1906  5
1907  9
1908  3
1909  2
1910  6
1911  7
1912  4
1913  6
1914  4
1915  10
1916  9
1917  5
1918  3
1919  4
1920  4
1921  8
1922  4
1923  6
1924  6
1925  4
1926  4
1927  6
1928  7
1929  8
1930  6
1931  5
1932  3
1933  5
1934  7
1935  6
1936  7
1937  3
1938  7
1939  0
1940  2
1941  2
1942  7
1943  1
1944  4
1945  3
1946  2
1947  5
1948  2
1949  5
1950  2
1951  1
1952  7
1953  5
1954  3
1955  3
1956  0
1957  3
1958  0
1959  4
1960  6
1961  3
1962  6
1963  1
1964  5
1965  8
1966  5
1967  5
1968  3
1969  5
1970  2
1971  1
1972  5
1973  1
1974  5
1975  3
1976  6
1977  3
1978  2
1979  4
1980  0
1981  5
1982  4
1983  2
1984  4
1985  1
1986  3
1987  2
1988  6
1989  3
1990  6
1991  5
1992  4
1993  9
1994  7
1995  4
1996  4
1997  3
1998  5
1999  6
2000  9
2001  6
2002  10
2003  6
2004  5
2005  4
2006  4
2007  8
2008  4
2009  5
2010  3
2011  6
2012  3
2013  5
2014  6
2015  3
2016  7
2017  12
2018  6
2019  5
2020  7
2021  4
2022  4
2023  11
2024  9
2025  1
2026  6
2027  5
2028  12
2029  2
2030  9
2031  4
2032  9
2033  5
2034  6
2035  7
2036  8
2037  5
2038  10
2039  8
2040  5
2041  5
2042  6
2043  8
2044  5
2045  8
2046  11
2047  7
2048  3
2049  10
2050  7
2051  2
2052  6
2053  7
2054  5
2055  7
2056  4
2057  5
2058  4
2059  1
2060  11
2061  4
2062  7
2063  3
2064  8
2065  3
2066  6
2067  3
2068  4
2069  2
2070  1
2071  2
2072  1
2073  5
2074  3
2075  5
2076  5
2077  4
2078  4
2079  4
2080  4
2081  6
2082  1
2083  5
2084  3
2085  4
2086  6
2087  7
2088  8
2089  7
2090  5
2091  3
2092  5
2093  1
2094  2
2095  2
2096  5
2097  2
2098  3
2099  1
2100  4
2101  4
2102  4
2103  4
2104  3
2105  4
2106  1
2107  3
2108  5
2109  4
2110  2
2111  2
2112  4
2113  3
2114  3
2115  5
2116  3
2117  6
2118  3
2119  0
2120  3
2121  3
2122  4
2123  2
2124  5
2125  5
2126  2
2127  7
2128  3
2129  3
2130  4
2131  2
2132  6
2133  0
2134  3
2135  5
2136  2
2137  5
2138  5
2139  4
2140  2
2141  6
2142  3
2143  0
2144  2
2145  2
2146  1
2147  8
2148  2
2149  4
2150  6
2151  7
2152  3
2153  5
2154  5
2155  2
2156  9
2157  7
2158  3
2159  1
2160  5
2161  6
2162  2
2163  3
2164  4
2165  6
2166  5
2167  7
2168  8
2169  6
2170  2
2171  5
2172  10
2173  9
2174  3
2175  4
2176  4
2177  4
2178  4
2179  5
2180  9
2181  3
2182  4
2183  11
2184  2
2185  4
2186  4
2187  5
2188  4
2189  6
2190  3
2191  3
2192  5
2193  8
2194  6
2195  2
2196  3
2197  5
2198  3
2199  4
2200  9
2201  5
2202  5
2203  3
2204  10
2205  2
2206  1
2207  7
2208  5
2209  6
2210  6
2211  6
2212  6
2213  2
2214  1
2215  4
2216  6
2217  5
2218  9
2219  3
2220  5
2221  6
2222  6
2223  3
2224  6
2225  4
2226  4
2227  6
2228  3
2229  4
2230  2
2231  3
2232  2
2233  2
2234  6
2235  7
2236  4
2237  3
2238  4
2239  2
2240  4
2241  4
2242  5
2243  7
2244  3
2245  7
2246  4
2247  5
2248  6
2249  9
2250  5
2251  6
2252  2
2253  2
2254  4
2255  6
2256  9
2257  5
2258  5
2259  11
2260  7
2261  1
2262  4
2263  3
2264  6
2265  6
2266  5
2267  5
2268  4
2269  4
2270  4
2271  5
2272  8
2273  6
2274  5
2275  3
2276  6
2277  6
2278  5
2279  5
2280  2
2281  7
2282  5
2283  3
2284  2
2285  6
2286  2
2287  5
2288  3
2289  2
2290  3
2291  5
2292  5
2293  3
2294  5
2295  5
2296  5
2297  3
2298  3
2299  4
2300  3
2301  3
2302  9
2303  7
2304  8
2305  7
2306  3
2307  1
2308  3
2309  2
2310  4
2311  6
2312  1
2313  4
2314  5
2315  1
2316  3
2317  2
2318  3
2319  4
2320  5
2321  1
2322  2
2323  5
2324  1
2325  4
2326  2
2327  3
2328  3
2329  2
2330  2
2331  3
2332  6
2333  3
2334  1
2335  5
2336  2
2337  3
2338  4
2339  3
2340  3
2341  1
2342  2
2343  2
2344  2
2345  2
2346  1
2347  4
2348  4
2349  2
2350  8
2351  5
2352  4
2353  1
2354  1
2355  3
2356  6
2357  3
2358  2
2359  5
2360  0
2361  1
2362  2
2363  3
2364  0
2365  2
2366  3
2367  3
2368  0
2369  2
2370  2
2371  3
2372  6
2373  5
2374  0
2375  2
2376  8
2377  2
2378  2
2379  2
2380  4
2381  4
2382  2
2383  4
2384  3
2385  3
2386  3
2387  6
2388  1
2389  5
2390  6
2391  1
2392  7
2393  4
2394  4
2395  2
2396  4
2397  6
2398  6
2399  4
2400  1
2401  2
2402  2
2403  7
2404  3
2405  4
2406  3
2407  5
2408  2
2409  3
2410  5
2411  3
2412  4
2413  5
2414  3
2415  1
2416  5
2417  3
2418  6
2419  5
2420  2
2421  4
2422  9
2423  3
2424  1
2425  7
2426  8
2427  4
2428  3
2429  10
2430  5
2431  6
2432  3
2433  5
2434  6
2435  6
2436  4
2437  9
2438  12
2439  3
2440  5
2441  6
2442  4
2443  9
2444  5
2445  5
2446  5
2447  4
2448  3
2449  2
2450  2
2451  2
2452  7
2453  2
2454  6
2455  0
2456  5
2457  2
2458  6
2459  4
2460  8
2461  4
2462  4
2463  1
2464  4
2465  2
2466  6
2467  4
2468  7
2469  3
2470  6
2471  7
2472  10
2473  3
2474  6
2475  3
2476  4
2477  4
2478  4
2479  10
2480  2
2481  5
2482  4
2483  4
2484  1
2485  2
2486  8
2487  8
2488  8
2489  5
2490  4
2491  8
2492  3
2493  3
2494  5
2495  3
2496  3
2497  1
2498  6
2499  3
2500  1
2501  2
2502  3
2503  4
2504  3
2505  2
2506  2
2507  3
2508  4
2509  3
2510  4
2511  8
2512  8
2513  7
2514  10
2515  6
2516  2
2517  7
2518  2
2519  2
2520  5
2521  1
2522  5
2523  1
2524  3
2525  7
2526  7
2527  2
2528  3
2529  2
2530  2
2531  3
2532  1
2533  2
2534  2
2535  4
2536  3
2537  3
2538  2
2539  3
2540  3
2541  2
2542  4
2543  3
2544  4
2545  1
2546  2
2547  4
2548  2
2549  2
2550  0
2551  3
2552  2
2553  4
2554  4
2555  2
2556  3
2557  3
2558  4
2559  5
2560  2
2561  3
2562  3
2563  3
2564  4
2565  0
2566  2
2567  4
2568  2
2569  3
2570  2
2571  3
2572  3
2573  7
2574  2
2575  3
2576  0
2577  1
2578  2
2579  3
2580  3
2581  1
2582  4
2583  3
2584  4
2585  2
2586  2
2587  4
2588  5
2589  1
2590  3
2591  3
2592  2
2593  0
2594  4
2595  3
2596  3
2597  1
2598  1
2599  3
2600  2
2601  5
2602  5
2603  3
2604  3
2605  2
2606  0
2607  3
2608  1
2609  6
2610  5
2611  3
2612  0
2613  2
2614  1
2615  2
2616  4
2617  4
2618  3
2619  4
2620  2
2621  4
2622  3
2623  3
2624  6
2625  2
2626  1
2627  3
2628  3
2629  4
2630  2
2631  2
2632  5
2633  3
2634  0
2635  1
2636  0
2637  1
2638  2
2639  4
2640  2
2641  0
2642  5
2643  2
2644  2
2645  3
2646  1
2647  3
2648  3
2649  0
2650  4
2651  2
2652  4
2653  5
2654  1
2655  2
2656  2
2657  5
2658  4
2659  3
2660  5
2661  0
2662  3
2663  4
2664  2
2665  0
2666  4
2667  6
2668  5
2669  1
2670  9
2671  4
2672  8
2673  3
2674  1
2675  4
2676  3
2677  3
2678  4
2679  3
2680  3
2681  5
2682  4
2683  2
2684  2
2685  2
2686  1
2687  4
2688  3
2689  4
2690  1
2691  3
2692  4
2693  2
2694  4
2695  4
2696  5
2697  3
2698  2
2699  7
2700  4
2701  1
2702  3
2703  1
2704  3
2705  2
2706  3
2707  3
2708  3
2709  3
2710  2
2711  7
2712  1
2713  2
2714  1
2715  2
2716  2
2717  1
2718  1
2719  1
2720  1
2721  2
2722  3
2723  2
2724  5
2725  2
2726  3
2727  2
2728  1
2729  4
2730  4
2731  3
2732  3
2733  5
2734  3
2735  2
2736  2
2737  4
2738  1
2739  2
2740  0
2741  5
2742  0
2743  2
2744  4
2745  0
2746  2
2747  4
2748  7
2749  4
2750  1
2751  8
2752  3
2753  1
2754  1
2755  2
2756  1
2757  0
2758  3
2759  2
2760  4
2761  1
2762  2
2763  3
2764  3
2765  2
2766  2
2767  2
2768  1
2769  2
2770  5
2771  4
2772  1
2773  1
2774  2
2775  1
2776  4
2777  1
2778  1
2779  3
2780  4
2781  1
2782  2
2783  3
2784  5
2785  2
2786  3
2787  1
2788  2
2789  2
2790  5
2791  1
2792  2
2793  1
2794  3
2795  2
2796  1
2797  1
2798  4
2799  4
2800  3
2801  5
2802  3
2803  3
2804  2
2805  1
2806  2
2807  8
2808  5
2809  3
2810  1
2811  7
2812  2
2813  2
2814  4
2815  4
2816  1
2817  3
2818  4
2819  3
2820  1
2821  3
2822  4
2823  1
2824  2
2825  3
2826  7
2827  2
2828  1
2829  2
2830  5
2831  2
2832  2
2833  3
2834  4
2835  1
2836  3
2837  5
2838  3
2839  3
2840  3
2841  2
2842  2
2843  2
2844  1
2845  2
2846  6
2847  3
2848  2
2849  0
2850  4
2851  3
2852  4
2853  1
2854  3
2855  1
2856  3
2857  1
2858  2
2859  3
2860  2
2861  3
2862  2
2863  0
2864  1
2865  4
2866  3
2867  4
2868  3
2869  5
2870  5
2871  1
2872  3
2873  3
2874  4
2875  4
2876  1
2877  4
2878  6
2879  4
2880  3
2881  4
2882  2
2883  7
2884  3
2885  1
2886  3
2887  2
2888  2
2889  1
2890  1
2891  6
2892  5
2893  3
2894  2
2895  3
2896  7
2897  3
2898  9
2899  4
2900  5
2901  9
2902  4
2903  5
2904  6
2905  4
2906  3
2907  4
2908  3
2909  2
2910  8
2911  4
2912  1
2913  4
2914  2
2915  4
2916  1
2917  1
2918  6
2919  2
2920  3
2921  4
2922  8
2923  5
2924  7
2925  4
2926  1
2927  5
2928  4
2929  5
2930  3
2931  4
2932  2
2933  4
2934  5
2935  6
2936  4
2937  2
2938  1
2939  2
2940  4
2941  2
2942  3
2943  2
2944  1
2945  1
2946  2
2947  4
2948  3
2949  2
2950  4
2951  2
2952  3
2953  5
2954  2
2955  4
2956  5
2957  2
2958  7
2959  10
2960  10
2961  5
2962  8
2963  3
2964  1
2965  3
2966  4
2967  5
2968  4
2969  7
2970  3
2971  5
2972  7
2973  4
2974  3
2975  8
2976  4
2977  7
2978  3
2979  6
2980  6
2981  7
2982  3
2983  6
2984  7
2985  5
2986  3
2987  6
2988  8
2989  4
2990  4
2991  9
2992  3
2993  8
2994  4
2995  7
2996  5
2997  4
2998  5
2999  7
3000  5
3001  3
3002  5
3003  2
3004  9
3005  5
3006  2
3007  4
3008  7
3009  5
3010  5
3011  5
3012  4
3013  8
3014  6
3015  4
3016  3
3017  6
3018  5
3019  2
3020  3
3021  3
3022  3
3023  2
3024  4
3025  2
3026  7
3027  1
3028  4
3029  4
3030  3
3031  4
3032  5
3033  3
3034  4
3035  5
3036  3
3037  5
3038  1
3039  3
3040  6
3041  5
3042  2
3043  3
3044  6
3045  2
3046  2
3047  7
3048  4
3049  1
3050  3
3051  1
3052  0
3053  3
3054  2
3055  2
3056  1
3057  4
3058  1
3059  2
3060  2
3061  1
3062  4
3063  5
3064  2
3065  6
3066  3
3067  5
3068  1
3069  1
3070  1
3071  1
3072  0
3073  2
3074  5
3075  4
3076  3
3077  3
3078  3
3079  3
3080  0
3081  3
3082  5
3083  1
3084  2
3085  2
3086  1
3087  0
3088  2
3089  4
3090  0
3091  1
3092  2
3093  1
3094  3
3095  1
3096  1
3097  1
3098  2
3099  3
3100  2
3101  2
3102  6
3103  0
3104  2
3105  4
3106  2
3107  0
3108  2
3109  4
3110  1
3111  3
3112  2
3113  1
3114  1
3115  2
3116  6
3117  5
3118  4
3119  5
3120  5
3121  3
3122  3
3123  2
3124  1
3125  2
3126  2
3127  1
3128  2
3129  2
3130  1
3131  1
3132  0
3133  1
3134  2
3135  1
3136  4
3137  0
3138  3
3139  3
3140  3
3141  4
3142  5
3143  2
3144  2
3145  3
3146  3
3147  2
3148  2
3149  3
3150  2
3151  1
3152  4
3153  2
3154  1
3155  3
3156  3
3157  2
3158  2
3159  2
3160  1
3161  2
3162  2
3163  4
3164  1
3165  1
3166  1
3167  3
3168  1
3169  4
3170  2
3171  4
3172  6
3173  4
3174  2
3175  4
3176  3
3177  2
3178  2
3179  2
3180  2
3181  5
3182  8
3183  2
3184  4
3185  1
3186  2
3187  5
3188  5
3189  4
3190  1
3191  1
3192  8
3193  4
3194  2
3195  5
3196  3
3197  0
3198  2
3199  8
3200  3
3201  5
3202  6
3203  2
3204  3
3205  3
3206  8
3207  2
3208  5
3209  2
3210  3
3211  3
3212  5
3213  4
3214  4
3215  3
3216  3
3217  3
3218  4
3219  4
3220  5
3221  3
3222  6
3223  4
3224  2
3225  5
3226  11
3227  4
3228  0
3229  5
3230  2
3231  2
3232  6
3233  6
3234  4
3235  3
3236  4
3237  3
3238  3
3239  1
3240  3
3241  1
3242  3
3243  2
3244  3
3245  2
3246  2
3247  3
3248  2
3249  3
3250  3
3251  2
3252  4
3253  4
3254  2
3255  2
3256  3
3257  2
3258  3
3259  5
3260  2
3261  4
3262  3
3263  7
3264  2
3265  4
3266  3
3267  4
3268  3
3269  2
3270  1
3271  9
3272  3
3273  3
3274  7
3275  6
3276  6
3277  6
3278  1
3279  4
3280  8
3281  6
3282  8
3283  4
3284  6
3285  2
3286  4
3287  5
3288  3
3289  6
3290  6
3291  6
3292  5
3293  5
3294  3
3295  7
3296  4
3297  7
3298  4
3299  4
3300  8
3301  7
3302  3
3303  5
3304  5
3305  5
3306  2
3307  2
3308  4
3309  2
3310  2
3311  3
3312  5
3313  6
3314  4
3315  2
3316  4
3317  2
3318  6
3319  3
3320  5
3321  3
3322  4
3323  2
3324  2
3325  5
3326  5
3327  6
3328  9
3329  3
3330  1
3331  4
3332  2
3333  5
3334  5
3335  2
3336  3
3337  3
3338  5
3339  5
3340  6
3341  4
3342  5
3343  2
3344  6
3345  8
3346  8
3347  10
3348  3
3349  6
3350  8
3351  4
3352  4
3353  3
3354  3
3355  4
3356  5
3357  5
3358  6
3359  0
3360  3
3361  3
3362  0
3363  5
3364  3
3365  3
3366  6
3367  4
3368  3
3369  6
3370  8
3371  4
3372  4
3373  4
3374  3
3375  2
3376  5
3377  5
3378  2
3379  5
3380  2
3381  4
3382  1
3383  2
3384  2
3385  4
3386  3
3387  3
3388  2
3389  1
3390  8
3391  4
3392  0
3393  0
3394  5
3395  1
3396  6
3397  6
3398  3
3399  6
3400  5
3401  2
3402  5
3403  4
3404  4
3405  1
3406  5
3407  4
3408  4
3409  5
3410  2
3411  3
3412  2
3413  4
3414  5
3415  3
3416  4
3417  1
3418  4
3419  2
3420  5
3421  5
3422  3
3423  4
3424  3
3425  2
3426  2
3427  4
3428  2
3429  0
3430  1
3431  0
3432  0
3433  3
3434  3
3435  2
3436  1
3437  2
3438  7
3439  1
3440  5
3441  3
3442  4
3443  4
3444  3
3445  5
3446  5
3447  2
3448  6
3449  4
3450  1
3451  4
3452  2
3453  2
3454  5
3455  4
3456  1
3457  2
3458  2
3459  4
3460  3
3461  6
3462  7
3463  2
3464  3
3465  4
3466  2
3467  4
3468  3
3469  4
3470  2
3471  3
3472  4
3473  4
3474  2
3475  4
3476  1
3477  2
3478  2
3479  5
3480  4
3481  1
3482  6
3483  3
3484  5
3485  3
3486  1
3487  7
3488  3
3489  7
3490  3
3491  1
3492  4
3493  5
3494  1
3495  4
3496  4
3497  3
3498  2
3499  2
3500  3
3501  5
3502  1
3503  3
3504  4
3505  1
3506  1
3507  6
3508  2
3509  1
3510  1
3511  2
3512  0
3513  5
3514  3
3515  2
3516  3
3517  3
3518  2
3519  1
3520  2
3521  5
3522  1
3523  1
3524  6
3525  2
3526  4
3527  2
3528  2
3529  8
3530  2
3531  2
3532  3
3533  4
3534  2
3535  6
3536  2
3537  5
3538  2
3539  4
3540  2
3541  2
3542  2
3543  4
3544  0
3545  3
3546  4
3547  1
3548  1
3549  2
3550  1
3551  4
3552  1
3553  2
3554  2
3555  7
3556  8
3557  4
3558  2
3559  5
3560  2
3561  3
3562  1
3563  0
3564  5
3565  4
3566  3
3567  1
3568  3
3569  5
3570  2
3571  0
3572  4
3573  2
3574  3
3575  2
3576  4
3577  4
3578  3
3579  1
3580  6
3581  7
3582  0
3583  1
3584  2
3585  3
3586  0
3587  5
3588  4
3589  4
3590  6
3591  2
3592  2
3593  5
3594  1
3595  2
3596  5
3597  0
3598  5
3599  2
3600  6
3601  3
3602  2
3603  1
3604  5
3605  6
3606  4
3607  3
3608  4
3609  5
3610  1
3611  4
3612  6
3613  1
3614  2
3615  4
3616  2
3617  3
3618  2
3619  5
3620  7
3621  5
3622  8
3623  6
3624  3
3625  3
3626  2
3627  3
3628  2
3629  7
3630  10
3631  3
3632  4
3633  2
3634  2
3635  4
3636  3
3637  4
3638  6
3639  4
3640  1
3641  3
3642  4
3643  4
3644  0
3645  3
3646  4
3647  3
3648  8
3649  3
3650  1
3651  1
3652  6
3653  5
3654  2
3655  1
3656  3
3657  2
3658  4
3659  3
3660  4
3661  6
3662  2
3663  1
3664  5
3665  3
3666  5
3667  4
3668  5
3669  3
3670  3
3671  0
3672  11
3673  2
3674  3
3675  5
3676  5
3677  4
3678  4
3679  7
3680  4
3681  8
3682  5
3683  5
3684  8
3685  7
3686  3
3687  6
3688  5
3689  6
3690  8
3691  3
3692  3
3693  6
3694  0
3695  3
3696  4
3697  3
3698  8
3699  5
3700  2
3701  5
3702  4
3703  4
3704  1
3705  3
3706  6
3707  2
3708  1
3709  3
3710  2
3711  5
3712  7
3713  3
3714  1
3715  1
3716  5
3717  5
3718  4
3719  4
3720  3
3721  3
3722  2
3723  6
3724  8
3725  2
3726  4
3727  5
3728  2
3729  2
3730  4
3731  1
3732  4
3733  4
3734  3
3735  2
3736  4
3737  3
3738  1
3739  4
3740  4
3741  3
3742  4
3743  2
3744  3
3745  1
3746  2
3747  2
3748  5
3749  3
3750  3
3751  2
3752  5
3753  1
3754  2
3755  5
3756  2
3757  2
3758  2
3759  1
3760  3
3761  1
3762  1
3763  4
3764  5
3765  6
3766  3
3767  0
3768  2
3769  3
3770  0
3771  4
3772  3
3773  5
3774  2
3775  3
3776  1
3777  1
3778  4
3779  0
3780  2
3781  3
3782  3
3783  0
3784  4
3785  4
3786  2
3787  3
3788  8
3789  1
3790  1
3791  4
3792  0
3793  2
3794  4
3795  3
3796  1
3797  2
3798  4
3799  2
3800  6
3801  2
3802  2
3803  4
3804  1
3805  1
3806  5
3807  4
3808  2
3809  1
3810  3
3811  4
3812  2
3813  1
3814  2
3815  2
3816  3
3817  3
3818  2
3819  3
3820  3
3821  4
3822  4
3823  4
3824  4
3825  4
3826  1
3827  3
3828  6
3829  4
3830  4
3831  3
3832  2
3833  6
3834  4
3835  4
3836  4
3837  1
3838  5
3839  4
3840  6
3841  1
3842  4
3843  4
3844  5
3845  7
3846  2
3847  4
3848  2
3849  2
3850  5
3851  2
3852  1
3853  3
3854  4
3855  3
3856  2
3857  2
3858  1
3859  1
3860  3
3861  0
3862  4
3863  3
3864  4
3865  1
3866  2
3867  2
3868  4
3869  3
3870  3
3871  1
3872  3
3873  2
3874  1
3875  1
3876  4
3877  0
3878  2
3879  2
3880  4
3881  2
3882  2
3883  2
3884  1
3885  1
3886  2
3887  1
3888  2
3889  1
3890  3
3891  3
3892  0
3893  4
3894  2
3895  4
3896  3
3897  3
3898  3
3899  4
3900  6
3901  4
3902  1
3903  2
3904  1
3905  1
3906  3
3907  2
3908  5
3909  2
3910  3
3911  0
3912  3
3913  2
3914  2
3915  2
3916  1
3917  3
3918  5
3919  2
3920  3
3921  4
3922  1
3923  0
3924  5
3925  2
3926  4
3927  3
3928  1
3929  3
3930  4
3931  5
3932  2
3933  3
3934  4
3935  6
3936  2
3937  1
3938  4
3939  2
3940  1
3941  4
3942  1
3943  3
3944  3
3945  2
3946  5
3947  2
3948  4
3949  3
3950  1
3951  2
3952  3
3953  3
3954  3
3955  2
3956  1
3957  4
3958  7
3959  5
3960  3
3961  1
3962  2
3963  3
3964  3
3965  2
3966  3
3967  7
3968  6
3969  3
3970  4
3971  4
3972  3
3973  2
3974  1
3975  4
3976  6
3977  3
3978  2
3979  3
3980  4
3981  3
3982  8
3983  4
3984  7
3985  3
3986  2
3987  6
3988  7
3989  2
3990  6
3991  3
3992  10
3993  1
3994  4
3995  7
3996  4
3997  3
3998  5
3999  4
4000  2
4001  5
4002  5
4003  3
4004  4
4005  0
4006  2
4007  3
4008  3
4009  5
4010  5
4011  2
4012  1
4013  5
4014  1
4015  5
4016  1
4017  1
4018  2
4019  3
4020  4
4021  1
4022  4
4023  6
4024  5
4025  3
4026  3
4027  10
4028  0
4029  3
4030  5
4031  1
4032  2
4033  2
4034  3
4035  2
4036  4
4037  1
4038  1
4039  1
4040  2
4041  4
4042  7
4043  4
4044  2
4045  2
4046  1
4047  3
4048  3
4049  3
4050  5
4051  5
4052  2
4053  4
4054  2
4055  4
4056  1
4057  2
4058  1
4059  5
4060  1
4061  5
4062  5
4063  3
4064  3
4065  3
4066  4
4067  3
4068  1
4069  3
4070  3
4071  4
4072  0
4073  2
4074  3
4075  3
4076  4
4077  1
4078  5
4079  1
4080  2
4081  1
4082  2
4083  0
4084  0
4085  5
4086  5
4087  2
4088  4
4089  2
4090  2
4091  2
4092  4
4093  2
4094  2
4095  1
4096  3
4097  2
4098  0
4099  4
4100  0
4101  4
4102  5
4103  4
4104  4
4105  2
4106  1
4107  2
4108  3
4109  2
4110  2
4111  3
4112  1
4113  1
4114  1
4115  3
4116  2
4117  2
4118  3
4119  3
4120  1
4121  1
4122  4
4123  3
4124  5
4125  3
4126  1
4127  3
4128  2
4129  0
4130  1
4131  0
4132  2
4133  2
4134  2
4135  2
4136  2
4137  2
4138  2
4139  3
4140  2
4141  2
4142  1
4143  1
4144  0
4145  1
4146  1
4147  1
4148  3
4149  2
4150  3
4151  0
4152  6
4153  1
4154  0
4155  5
4156  4
4157  4
4158  4
4159  2
4160  2
4161  1
4162  3
4163  4
4164  3
4165  2
4166  2
4167  0
4168  0
4169  0
4170  4
4171  0
4172  3
4173  4
4174  1
4175  4
4176  2
4177  3
4178  2
4179  2
4180  1
4181  3
4182  0
4183  6
4184  3
4185  1
4186  3
4187  4
4188  4
4189  4
4190  0
4191  2
4192  2
4193  2
4194  2
4195  1
4196  1
4197  4
4198  3
4199  3
4200  4
4201  2
4202  1
4203  3
4204  3
4205  1
4206  2
4207  6
4208  4
4209  0
4210  3
4211  2
4212  0
4213  5
4214  0
4215  2
4216  1
4217  0
4218  5
4219  3
4220  1
4221  0
4222  1
4223  3
4224  4
4225  2
4226  3
4227  2
4228  0
4229  1
4230  0
4231  0
4232  1
4233  1
4234  3
4235  5
4236  1
4237  1
4238  3
4239  2
4240  3
4241  4
4242  2
4243  4
4244  0
4245  4
4246  4
4247  1
4248  4
4249  7
4250  4
4251  3
4252  3
4253  4
4254  2
4255  3
4256  3
4257  1
4258  5
4259  1
4260  9
4261  6
4262  4
4263  4
4264  2
4265  2
4266  8
4267  2
4268  4
4269  5
4270  2
4271  3
4272  2
4273  6
4274  8
4275  4
4276  3
4277  3
4278  4
4279  9
4280  4
4281  3
4282  1
4283  4
4284  4
4285  2
4286  5
4287  5
4288  4
4289  0
4290  0
4291  4
4292  3
4293  3
4294  5
4295  2
4296  3
4297  3
4298  0
4299  4
4300  2
4301  1
4302  1
4303  3
4304  1
4305  8
4306  2
4307  4
4308  6
4309  2
4310  7
4311  3
4312  5
4313  3
4314  3
4315  2
4316  8
4317  0
4318  0
4319  4
4320  1
4321  4
4322  2
4323  1
4324  3
4325  2
4326  4
4327  4
4328  4
4329  2
4330  2
4331  6
4332  4
4333  4
4334  4
4335  4
4336  1
4337  3
4338  3
4339  4
4340  4
4341  1
4342  1
4343  4
4344  1
4345  4
4346  0
4347  4
4348  2
4349  1
4350  3
4351  2
4352  5
4353  0
4354  1
4355  2
4356  2
4357  2
4358  2
4359  5
4360  1
4361  5
4362  0
4363  3
4364  1
4365  1
4366  0
4367  4
4368  1
4369  4
4370  1
4371  4
4372  7
4373  3
4374  5
4375  2
4376  4
4377  3
4378  4
4379  2
4380  1
4381  4
4382  1
4383  4
4384  1
4385  3
4386  3
4387  3
4388  0
4389  2
4390  2
4391  1
4392  1
4393  4
4394  2
4395  0
4396  3
4397  5
4398  0
4399  0
4400  1
4401  1
4402  7
4403  2
4404  1
4405  6
4406  2
4407  3
4408  0
4409  3
4410  3
4411  2
4412  1
4413  4
4414  4
4415  0
4416  3
4417  4
4418  2
4419  4
4420  1
4421  2
4422  1
4423  6
4424  2
4425  2
4426  3
4427  3
4428  1
4429  3
4430  3
4431  4
4432  3
4433  5
4434  1
4435  4
4436  1
4437  2
4438  3
4439  5
4440  3
4441  5
4442  5
4443  0
4444  8
4445  6
4446  0
4447  4
4448  7
4449  1
4450  4
4451  2
4452  2
4453  2
4454  1
4455  2
4456  4
4457  8
4458  3
4459  3
4460  3
4461  3
4462  3
4463  4
4464  4
4465  4
4466  3
4467  3
4468  3
4469  1
4470  2
4471  5
4472  1
4473  2
4474  4
4475  2
4476  5
4477  1
4478  3
4479  4
4480  6
4481  3
4482  6
4483  3
4484  3
4485  2
4486  5
4487  2
4488  5
4489  5
4490  5
4491  2
4492  3
4493  2
4494  6
4495  4
4496  3
4497  3
4498  4
4499  4
4500  8
4501  6
4502  5
4503  2
4504  1
4505  5
4506  3
4507  4
4508  2
4509  3
4510  4
4511  5
4512  3
4513  5
4514  3
4515  4
4516  3
4517  10
4518  6
4519  1
4520  3
4521  5
4522  3
4523  3
4524  3
4525  5
4526  4
4527  6
4528  7
4529  4
4530  7
4531  1
4532  6
4533  3
4534  2
4535  3
4536  3
4537  4
4538  4
4539  4
4540  3
4541  5
4542  2
4543  1
4544  6
4545  2
4546  2
4547  5
4548  3
4549  5
4550  4
4551  4
4552  3
4553  2
4554  2
4555  6
4556  6
4557  2
4558  1
4559  1
4560  6
4561  4
4562  3
4563  3
4564  4
4565  2
4566  4
4567  3
4568  4
4569  3
4570  4
4571  3
4572  4
4573  6
4574  1
4575  4
4576  2
4577  1
4578  7
4579  1
4580  5
4581  3
4582  2
4583  5
4584  5
4585  1
4586  1
4587  5
4588  4
4589  4
4590  3
4591  3
4592  7
4593  2
4594  9
4595  3
4596  1
4597  3
4598  4
4599  2
4600  2
4601  5
4602  5
4603  6
4604  4
4605  4
4606  6
4607  4
4608  1
4609  3
4610  6
4611  4
4612  7
4613  3
4614  6
4615  4
4616  3
4617  3
4618  6
4619  2
4620  5
4621  1
4622  1
4623  1
4624  1
4625  3
4626  2
4627  8
4628  7
4629  5
4630  5
4631  4
4632  3
4633  4
4634  2
4635  2
4636  3
4637  2
4638  6
4639  1
4640  2
4641  2
4642  3
4643  3
4644  2
4645  4
4646  5
4647  4
4648  3
4649  4
4650  6
4651  2
4652  4
4653  4
4654  6
4655  2
4656  4
4657  8
4658  7
4659  2
4660  7
4661  4
4662  4
4663  4
4664  5
4665  3
4666  0
4667  5
4668  4
4669  3
4670  4
4671  5
4672  6
4673  5
4674  1
4675  2
4676  3
4677  5
4678  6
4679  2
4680  5
4681  3
4682  1
4683  5
4684  2
4685  3
4686  7
4687  7
4688  2
4689  2
4690  1
4691  4
4692  4
4693  4
4694  1
4695  2
4696  7
4697  3
4698  0
4699  5
4700  2
4701  4
4702  1
4703  2
4704  2
4705  0
4706  2
4707  6
4708  2
4709  2
4710  5
4711  2
4712  3
4713  3
4714  1
4715  4
4716  5
4717  1
4718  5
4719  3
4720  3
4721  4
4722  4
4723  3
4724  2
4725  4
4726  3
4727  1
4728  2
4729  2
4730  4
4731  3
4732  1
4733  1
4734  3
4735  1
4736  3
4737  8
4738  2
4739  4
4740  4
4741  4
4742  2
4743  4
4744  6
4745  2
4746  2
4747  4
4748  3
4749  1
4750  7
4751  3
4752  5
4753  5
4754  7
4755  6
4756  8
4757  6
4758  3
4759  10
4760  7
4761  7
4762  8
4763  13
4764  8
4765  7
4766  16
4767  10
4768  11
4769  14
4770  15
4771  11
4772  12
4773  17
4774  11
4775  13
4776  14
4777  17
4778  18
4779  27
4780  24
4781  17
4782  21
4783  30
4784  25
4785  31
4786  25
4787  16
4788  18
4789  19
4790  32
4791  28
4792  13
4793  15
4794  19
4795  30
4796  21
4797  20
4798  24
4799  20
4800  22
4801  22
4802  13
4803  27
4804  19
4805  19
4806  23
4807  13
4808  16
4809  8
4810  14
4811  9
4812  10
4813  14
4814  8
4815  8
4816  5
4817  8
4818  4
4819  9
4820  8
4821  8
4822  3
4823  5
4824  3
4825  7
4826  7
4827  7
4828  5
4829  3
4830  3
4831  4
4832  3
4833  7
4834  4
4835  5
4836  3
4837  1
4838  2
4839  5
4840  8
4841  3
4842  5
4843  5
4844  4
4845  4
4846  4
4847  5
4848  3
4849  4
4850  3
4851  4
4852  4
4853  0
4854  2
4855  3
4856  5
4857  7
4858  3
4859  2
4860  6
4861  2
4862  3
4863  2
4864  5
4865  1
4866  4
4867  5
4868  6
4869  4
4870  5
4871  3
4872  6
4873  4
4874  4
4875  1
4876  10
4877  3
4878  4
4879  6
4880  4
4881  4
4882  6
4883  6
4884  4
4885  2
4886  5
4887  8
4888  6
4889  3
4890  3
4891  2
4892  4
4893  14
4894  5
4895  4
4896  5
4897  10
4898  8
4899  7
4900  6
4901  3
4902  4
4903  9
4904  3
4905  6
4906  12
4907  5
4908  5
4909  10
4910  9
4911  13
4912  13
4913  7
4914  16
4915  8
4916  11
4917  13
4918  11
4919  14
4920  14
4921  13
4922  15
4923  13
4924  22
4925  24
4926  22
4927  36
4928  35
4929  28
4930  34
4931  34
4932  42
4933  50
4934  44
4935  57
4936  77
4937  75
4938  78
4939  100
4940  82
4941  99
4942  98
4943  106
4944  118
4945  125
4946  151
4947  145
4948  167
4949  201
4950  191
4951  232
4952  221
4953  229
4954  243
4955  265
4956  262
4957  263
4958  263
4959  281
4960  301
4961  331
4962  266
4963  321
4964  314
4965  306
4966  296
4967  280
4968  288
4969  297
4970  238
4971  240
4972  251
4973  264
4974  233
4975  240
4976  203
4977  188
4978  202
4979  178
4980  153
4981  143
4982  111
4983  110
4984  118
4985  92
4986  79
4987  76
4988  74
4989  59
4990  47
4991  46
4992  57
4993  27
4994  27
4995  20
4996  32
4997  31
4998  13
4999  20
5000  20
5001  12
5002  10
5003  9
5004  5
5005  4
5006  6
5007  5
5008  6
5009  4
5010  4
5011  6
5012  6
5013  1
5014  1
5015  7
5016  1
5017  3
5018  4
5019  5
5020  4
5021  1
5022  2
5023  1
5024  1
5025  6
5026  3
5027  4
5028  7
5029  2
5030  1
5031  8
5032  5
5033  4
5034  1
5035  3
5036  1
5037  1
5038  0
5039  3
5040  6
5041  7
5042  1
5043  2
5044  2
5045  3
5046  1
5047  0
5048  2
5049  3
5050  1
5051  1
5052  6
5053  4
5054  5
5055  4
5056  0
5057  2
5058  0
5059  2
5060  3
5061  0
5062  5
5063  3
5064  1
5065  3
5066  3
5067  1
5068  0
5069  3
5070  2
5071  4
5072  2
5073  1
5074  2
5075  0
5076  4
5077  1
5078  2
5079  2
5080  1
5081  3
5082  1
5083  3
5084  2
5085  0
5086  2
5087  0
5088  1
5089  4
5090  3
5091  0
5092  0
5093  2
5094  3
5095  3
5096  2
5097  0
5098  2
5099  1
5100  3
5101  2
5102  1
5103  1
5104  2
5105  2
5106  2
5107  3
5108  2
5109  4
5110  4
5111  2
5112  2
5113  3
5114  3
5115  4
5116  2
5117  1
5118  1
5119  2
5120  2
5121  3
5122  3
5123  1
5124  0
5125  5
5126  1
5127  3
5128  4
5129  4
5130  4
5131  3
5132  4
5133  1
5134  6
5135  3
5136  2
5137  2
5138  0
5139  2
5140  0
5141  1
5142  1
5143  2
5144  5
5145  5
5146  1
5147  1
5148  3
5149  0
5150  3
5151  2
5152  2
5153  1
5154  1
5155  0
5156  3
5157  4
5158  1
5159  1
5160  2
5161  1
5162  4
5163  2
5164  0
5165  4
5166  0
5167  3
5168  3
5169  0
5170  3
5171  1
5172  2
5173  5
5174  1
5175  2
5176  1
5177  3
5178  2
5179  3
5180  2
5181  3
5182  4
5183  2
5184  4
5185  2
5186  1
5187  3
5188  3
5189  2
5190  1
5191  2
5192  2
5193  0
5194  2
5195  4
5196  3
5197  2
5198  3
5199  2
5200  2
5201  3
5202  1
5203  8
5204  2
5205  2
5206  3
5207  0
5208  3
5209  4
5210  2
5211  3
5212  2
5213  1
5214  4
5215  1
5216  4
5217  3
5218  4
5219  2
5220  6
5221  2
5222  0
5223  2
5224  2
5225  4
5226  5
5227  5
5228  4
5229  2
5230  5
5231  1
5232  3
5233  4
5234  1
5235  1
5236  7
5237  0
5238  1
5239  4
5240  3
5241  2
5242  3
5243  2
5244  2
5245  2
5246  2
5247  2
5248  3
5249  1
5250  3
5251  2
5252  3
5253  4
5254  1
5255  2
5256  1
5257  2
5258  5
5259  3
5260  2
5261  3
5262  1
5263  1
5264  3
5265  4
5266  5
5267  2
5268  2
5269  3
5270  1
5271  5
5272  2
5273  2
5274  7
5275  1
5276  1
5277  1
5278  2
5279  5
5280  2
5281  2
5282  2
5283  2
5284  1
5285  1
5286  3
5287  4
5288  6
5289  1
5290  4
5291  5
5292  3
5293  2
5294  1
5295  0
5296  4
5297  1
5298  3
5299  4
5300  2
5301  1
5302  2
5303  3
5304  1
5305  0
5306  5
5307  2
5308  4
5309  6
5310  1
5311  3
5312  6
5313  3
5314  1
5315  2
5316  3
5317  2
5318  5
5319  2
5320  0
5321  2
5322  3
5323  3
5324  6
5325  3
5326  2
5327  7
5328  2
5329  4
5330  3
5331  3
5332  0
5333  4
5334  2
5335  5
5336  3
5337  3
5338  0
5339  4
5340  0
5341  2
5342  5
5343  6
5344  6
5345  4
5346  2
5347  3
5348  4
5349  5
5350  1
5351  4
5352  0
5353  3
5354  2
5355  6
5356  2
5357  2
5358  4
5359  5
5360  3
5361  2
5362  8
5363  3
5364  2
5365  5
5366  2
5367  4
5368  3
5369  4
5370  4
5371  6
5372  4
5373  2
5374  3
5375  7
5376  5
5377  4
5378  4
5379  8
5380  5
5381  7
5382  4
5383  5
5384  2
5385  4
5386  6
5387  4
5388  3
5389  2
5390  5
5391  4
5392  6
5393  8
5394  6
5395  6
5396  3
5397  7
5398  6
5399  13
5400  7
5401  8
5402  9
5403  5
5404  4
5405  10
5406  8
5407  8
5408  7
5409  12
5410  11
5411  11
5412  13
5413  17
5414  10
5415  14
5416  18
5417  18
5418  13
5419  11
5420  20
5421  18
5422  14
5423  21
5424  17
5425  18
5426  21
5427  21
5428  31
5429  32
5430  29
5431  29
5432  25
5433  38
5434  34
5435  36
5436  43
5437  30
5438  47
5439  42
5440  49
5441  58
5442  42
5443  43
5444  40
5445  66
5446  63
5447  51
5448  57
5449  57
5450  59
5451  85
5452  61
5453  63
5454  57
5455  68
5456  68
5457  68
5458  61
5459  70
5460  58
5461  64
5462  59
5463  62
5464  82
5465  71
5466  62
5467  50
5468  50
5469  44
5470  49
5471  45
5472  37
5473  36
5474  47
5475  41
5476  39
5477  28
5478  32
5479  31
5480  31
5481  18
5482  15
5483  27
5484  18
5485  14
5486  18
5487  12
5488  10
5489  15
5490  7
5491  9
5492  4
5493  12
5494  6
5495  4
5496  7
5497  7
5498  6
5499  4
5500  4
5501  4
5502  4
5503  4
5504  3
5505  3
5506  6
5507  7
5508  7
5509  3
5510  2
5511  4
5512  1
5513  3
5514  1
5515  4
5516  1
5517  3
5518  1
5519  2
5520  4
5521  1
5522  2
5523  2
5524  0
5525  2
5526  2
5527  5
5528  7
5529  1
5530  4
5531  3
5532  2
5533  5
5534  8
5535  3
5536  6
5537  4
5538  2
5539  2
5540  6
5541  7
5542  3
5543  3
5544  5
5545  2
5546  3
5547  5
5548  3
5549  2
5550  2
5551  3
5552  6
5553  2
5554  7
5555  3
5556  5
5557  4
5558  2
5559  7
5560  2
5561  3
5562  3
5563  6
5564  3
5565  5
5566  6
5567  6
5568  4
5569  7
5570  6
5571  6
5572  11
5573  7
5574  6
5575  4
5576  5
5577  4
5578  12
5579  10
5580  8
5581  7
5582  14
5583  13
5584  13
5585  8
5586  16
5587  10
5588  10
5589  11
5590  16
5591  21
5592  21
5593  27
5594  17
5595  46
5596  32
5597  40
5598  29
5599  48
5600  38
5601  47
5602  49
5603  56
5604  60
5605  78
5606  73
5607  76
5608  91
5609  96
5610  141
5611  124
5612  105
5613  152
5614  140
5615  144
5616  168
5617  169
5618  176
5619  218
5620  183
5621  225
5622  232
5623  231
5624  244
5625  288
5626  265
5627  259
5628  291
5629  297
5630  259
5631  288
5632  280
5633  271
5634  258
5635  255
5636  259
5637  266
5638  255
5639  271
5640  284
5641  232
5642  217
5643  247
5644  194
5645  192
5646  180
5647  166
5648  163
5649  152
5650  149
5651  135
5652  107
5653  89
5654  79
5655  97
5656  72
5657  60
5658  65
5659  45
5660  39
5661  41
5662  42
5663  29
5664  23
5665  28
5666  22
5667  19
5668  18
5669  16
5670  11
5671  14
5672  8
5673  8
5674  5
5675  13
5676  5
5677  5
5678  5
5679  5
5680  5
5681  2
5682  3
5683  1
5684  3
5685  0
5686  5
5687  4
5688  3
5689  5
5690  0
5691  1
5692  2
5693  3
5694  3
5695  0
5696  1
5697  1
5698  2
5699  2
5700  0
5701  0
5702  3
5703  0
5704  1
5705  0
5706  2
5707  1
5708  1
5709  2
5710  1
5711  0
5712  2
5713  2
5714  1
5715  2
5716  1
5717  0
5718  1
5719  0
5720  1
5721  6
5722  2
5723  0
5724  0
5725  2
5726  2
5727  2
5728  1
5729  0
5730  6
5731  4
5732  1
5733  1
5734  0
5735  0
5736  3
5737  0
5738  3
5739  1
5740  2
5741  2
5742  2
5743  1
5744  3
5745  0
5746  2
5747  3
5748  2
5749  3
5750  3
5751  0
5752  1
5753  0
5754  3
5755  3
5756  1
5757  3
5758  0
5759  3
5760  0
5761  1
5762  1
5763  3
5764  4
5765  1
5766  3
5767  2
5768  0
5769  4
5770  3
5771  3
5772  3
5773  1
5774  2
5775  1
5776  3
5777  1
5778  2
5779  0
5780  0
5781  4
5782  3
5783  1
5784  2
5785  0
5786  3
5787  3
5788  2
5789  2
5790  3
5791  0
5792  1
5793  3
5794  1
5795  1
5796  2
5797  4
5798  5
5799  3
5800  1
5801  0
5802  2
5803  2
5804  0
5805  2
5806  2
5807  4
5808  3
5809  0
5810  1
5811  2
5812  3
5813  0
5814  0
5815  3
5816  1
5817  1
5818  2
5819  4
5820  3
5821  0
5822  1
5823  2
5824  3
5825  3
5826  4
5827  2
5828  1
5829  2
5830  1
5831  4
5832  2
5833  1
5834  1
5835  0
5836  2
5837  0
5838  1
5839  1
5840  2
5841  1
5842  3
5843  4
5844  3
5845  2
5846  4
5847  3
5848  2
5849  2
5850  3
5851  2
5852  2
5853  3
5854  1
5855  0
5856  2
5857  0
5858  6
5859  2
5860  4
5861  1
5862  3
5863  3
5864  3
5865  3
5866  2
5867  1
5868  2
5869  5
5870  3
5871  3
5872  4
5873  7
5874  4
5875  7
5876  1
5877  4
5878  5
5879  3
5880  0
5881  2
5882  1
5883  2
5884  4
5885  5
5886  6
5887  6
5888  4
5889  2
5890  2
5891  1
5892  1
5893  3
5894  4
5895  4
5896  3
5897  2
5898  1
5899  7
5900  3
5901  2
5902  2
5903  2
5904  4
5905  2
5906  1
5907  2
5908  3
5909  0
5910  3
5911  2
5912  1
5913  4
5914  1
5915  3
5916  5
5917  2
5918  2
5919  1
5920  2
5921  4
5922  2
5923  2
5924  1
5925  2
5926  2
5927  0
5928  2
5929  3
5930  2
5931  2
5932  2
5933  4
5934  3
5935  3
5936  1
5937  2
5938  1
5939  3
5940  3
5941  2
5942  5
5943  1
5944  0
5945  4
5946  5
5947  4
5948  3
5949  3
5950  2
5951  6
5952  2
5953  2
5954  2
5955  3
5956  4
5957  2
5958  4
5959  1
5960  3
5961  7
5962  4
5963  3
5964  5
5965  0
5966  1
5967  4
5968  5
5969  5
5970  2
5971  2
5972  4
5973  3
5974  1
5975  5
5976  4
5977  2
5978  4
5979  1
5980  1
5981  1
5982  3
5983  2
5984  3
5985  2
5986  2
5987  2
5988  2
5989  2
5990  3
5991  3
5992  4
5993  3
5994  6
5995  4
5996  4
5997  4
5998  4
5999  3
6000  4
6001  3
6002  5
6003  2
6004  3
6005  3
6006  1
6007  1
6008  3
6009  2
6010  1
6011  5
6012  4
6013  3
6014  4
6015  4
6016  7
6017  5
6018  3
6019  2
6020  1
6021  0
6022  5
6023  0
6024  4
6025  1
6026  5
6027  5
6028  4
6029  0
6030  9
6031  2
6032  1
6033  3
6034  5
6035  4
6036  5
6037  4
6038  7
6039  5
6040  5
6041  3
6042  6
6043  11
6044  6
6045  8
6046  3
6047  4
6048  10
6049  5
6050  11
6051  5
6052  11
6053  7
6054  7
6055  4
6056  13
6057  9
6058  8
6059  14
6060  4
6061  11
6062  11
6063  14
6064  11
6065  11
6066  9
6067  16
6068  16
6069  10
6070  26
6071  16
6072  14
6073  22
6074  12
6075  22
6076  19
6077  34
6078  20
6079  34
6080  37
6081  22
6082  34
6083  39
6084  50
6085  50
6086  73
6087  53
6088  69
6089  78
6090  69
6091  87
6092  104
6093  98
6094  90
6095  106
6096  124
6097  129
6098  120
6099  155
6100  150
6101  171
6102  168
6103  178
6104  209
6105  208
6106  187
6107  228
6108  212
6109  226
6110  215
6111  276
6112  262
6113  259
6114  265
6115  264
6116  274
6117  285
6118  280
6119  285
6120  268
6121  253
6122  260
6123  266
6124  240
6125  250
6126  258
6127  249
6128  250
6129  192
6130  208
6131  202
6132  196
6133  176
6134  156
6135  154
6136  135
6137  147
6138  105
6139  120
6140  109
6141  80
6142  82
6143  82
6144  75
6145  73
6146  51
6147  51
6148  46
6149  30
6150  32
6151  26
6152  32
6153  29
6154  20
6155  14
6156  11
6157  11
6158  10
6159  10
6160  5
6161  5
6162  2
6163  4
6164  4
6165  3
6166  6
6167  5
6168  1
6169  2
6170  4
6171  2
6172  0
6173  1
6174  3
6175  1
6176  0
6177  0
6178  1
6179  2
6180  2
6181  1
6182  0
6183  1
6184  1
6185  0
6186  2
6187  2
6188  1
6189  0
6190  0
6191  1
6192  6
6193  1
6194  0
6195  1
6196  0
6197  1
6198  1
6199  0
6200  0
6201  1
6202  0
6203  0
6204  1
6205  0
6206  1
6207  0
6208  0
6209  2
6210  0
6211  0
6212  1
6213  1
6214  1
6215  0
6216  1
6217  0
6218  0
6219  0
6220  1
6221  4
6222  1
6223  0
6224  1
6225  0
6226  1
6227  2
6228  0
6229  0
6230  1
6231  1
6232  1
6233  2
6234  0
6235  1
6236  0
6237  0
6238  0
6239  0
6240  0
6241  0
6242  0
6243  0
6244  1
6245  2
6246  1
6247  0
6248  0
6249  1
6250  3
6251  0
6252  0
6253  1
6254  1
6255  0
6256  0
6257  1
6258  0
6259  0
6260  0
6261  1
6262  0
6263  1
6264  0
6265  0
6266  1
6267  1
6268  0
6269  1
6270  1
6271  0
6272  0
6273  2
6274  1
6275  1
6276  0
6277  0
6278  1
6279  0
6280  1
6281  0
6282  0
6283  0
6284  1
6285  1
6286  0
6287  1
6288  0
6289  0
6290  0
6291  0
6292  1
6293  0
6294  0
6295  0
6296  0
6297  1
6298  1
6299  0
6300  0
6301  0
6302  0
6303  0
6304  0
6305  1
6306  1
6307  0
6308  0
6309  1
6310  0
6311  1
6312  0
6313  0
6314  0
6315  1
6316  0
6317  0
6318  0
6319  0
6320  0
6321  0
6322  0
6323  0
6324  0
6325  1
6326  1
6327  0
6328  0
6329  1
6330  0
6331  0
6332  0
6333  1
6334  0
6335  0
6336  0
6337  0
6338  0
6339  0
6340  2
6341  0
6342  1
6343  0
6344  0
6345  0
6346  0
6347  0
6348  0
6349  0
6350  0
6351  0
6352  0
6353  0
6354  1
6355  0
6356  0
6357  0
6358  0
6359  1
6360  0
6361  0
6362  1
6363  0
6364  0
6365  0
6366  0
6367  0
6368  1
6369  0
6370  0
6371  1
6372  1
6373  0
6374  1
6375  1
6376  0
6377  0
6378  0
6379  1
6380  1
6381  0
6382  0
6383  1
6384  0
6385  0
6386  0
6387  1
6388  1
6389  0
6390  0
6391  0
6392  0
6393  1
6394  1
6395  0
6396  0
6397  0
6398  0
6399  1
6400  0
6401  0
6402  1
6403  0
6404  1
6405  1
6406  1
6407  0
6408  0
6409  0
6410  0
6411  0
6412  0
6413  1
6414  0
6415  1
6416  0
6417  0
6418  0
6419  1
6420  0
6421  1
6422  0
6423  0
6424  0
6425  0
6426  0
6427  0
6428  1
6429  2
6430  0
6431  0
6432  0
6433  0
6434  0
6435  0
6436  0
6437  0
6438  1
6439  0
6440  0
6441  0
6442  1
6443  0
6444  0
6445  0
6446  0
6447  1
6448  0
6449  1
6450  0
6451  0
6452  0
6453  0
6454  0
6455  0
6456  0
6457  0
6458  1
6459  0
6460  0
6461  1
6462  0
6463  1
6464  1
6465  1
6466  0
6467  0
6468  0
6469  0
6470  1
6471  0
6472  0
6473  0
6474  0
6475  0
6476  0
6477  0
6478  0
6479  0
6480  0
6481  1
6482  0
6483  0
6484  2
6485  0
6486  0
6487  1
6488  0
6489  0
6490  0
6491  1
6492  0
6493  1
6494  0
6495  0
6496  1
6497  0
6498  0
6499  0
6500  1
6501  2
6502  0
6503  0
6504  1
6505  1
6506  0
6507  0
6508  1
6509  1
6510  0
6511  0
6512  0
6513  1
6514  0
6515  1
6516  0
6517  2
6518  1
6519  3
6520  1
6521  1
6522  0
6523  1
6524  0
6525  1
6526  2
6527  0
6528  2
6529  1
6530  0
6531  0
6532  0
6533  0
6534  0
6535  1
6536  1
6537  1
6538  1
6539  0
6540  0
6541  0
6542  1
6543  0
6544  1
6545  1
6546  1
6547  1
6548  1
6549  0
6550  1
6551  1
6552  0
6553  0
6554  0
6555  2
6556  0
6557  0
6558  1
6559  1
6560  0
6561  0
6562  0
6563  0
6564  0
6565  0
6566  2
6567  0
6568  0
6569  0
6570  2
6571  0
6572  0
6573  1
6574  0
6575  0
6576  2
6577  0
6578  0
6579  0
6580  0
6581  0
6582  3
6583  0
6584  0
6585  0
6586  2
6587  1
6588  0
6589  1
6590  0
6591  1
6592  0
6593  1
6594  0
6595  4
6596  2
6597  0
6598  0
6599  2
6600  0
6601  1
6602  0
6603  1
6604  2
6605  0
6606  1
6607  1
6608  2
6609  1
6610  0
6611  1
6612  1
6613  0
6614  2
6615  1
6616  0
6617  0
6618  0
6619  0
6620  0
6621  0
6622  0
6623  0
6624  1
6625  2
6626  1
6627  0
6628  1
6629  0
6630  1
6631  0
6632  0
6633  1
6634  0
6635  0
6636  0
6637  0
6638  2
6639  2
6640  0
6641  0
6642  0
6643  0
6644  1
6645  0
6646  0
6647  0
6648  0
6649  1
6650  0
6651  0
6652  0
6653  0
6654  1
6655  1
6656  1
6657  2
6658  1
6659  2
6660  0
6661  0
6662  0
6663  2
6664  1
6665  0
6666  1
6667  1
6668  0
6669  0
6670  0
6671  0
6672  0
6673  0
6674  0
6675  0
6676  1
6677  1
6678  0
6679  0
6680  1
6681  0
6682  1
6683  0
6684  0
6685  0
6686  0
6687  0
6688  0
6689  1
6690  0
6691  0
6692  0
6693  0
6694  0
6695  1
6696  0
6697  0
6698  0
6699  1
6700  0
6701  1
6702  0
6703  0
6704  0
6705  0
6706  0
6707  0
6708  0
6709  0
6710  0
6711  0
6712  0
6713  0
6714  0
6715  1
6716  0
6717  0
6718  0
6719  0
6720  1
6721  2
6722  1
6723  0
6724  0
6725  1
6726  0
6727  1
6728  0
6729  0
6730  1
6731  0
6732  1
6733  0
6734  0
6735  1
6736  0
6737  0
6738  1
6739  1
6740  1
6741  0
6742  1
6743  1
6744  1
6745  2
6746  0
6747  1
6748  0
6749  0
6750  1
6751  0
6752  1
6753  0
6754  3
6755  0
6756  0
6757  0
6758  1
6759  0
6760  0
6761  0
6762  0
6763  0
6764  0
6765  0
6766  3
6767  1
6768  1
6769  0
6770  1
6771  0
6772  0
6773  0
6774  0
6775  0
6776  1
6777  2
6778  2
6779  1
6780  0
6781  0
6782  1
6783  1
6784  0
6785  1
6786  0
6787  2
6788  0
6789  1
6790  0
6791  0
6792  0
6793  0
6794  1
6795  0
6796  2
6797  0
6798  2
6799  1
6800  0
6801  0
6802  1
6803  0
6804  0
6805  0
6806  1
6807  0
6808  0
6809  0
6810  1
6811  1
6812  0
6813  1
6814  0
6815  1
6816  1
6817  0
6818  0
6819  0
6820  1
6821  0
6822  0
6823  0
6824  0
6825  0
6826  0
6827  0
6828  0
6829  1
6830  0
6831  0
6832  0
6833  1
6834  0
6835  2
6836  1
6837  0
6838  1
6839  0
6840  2
6841  1
6842  0
6843  0
6844  0
6845  0
6846  0
6847  0
6848  0
6849  1
6850  0
6851  1
6852  0
6853  0
6854  0
6855  1
6856  2
6857  0
6858  1
6859  0
6860  1
6861  2
6862  0
6863  0
6864  1
6865  0
6866  0
6867  0
6868  1
6869  1
6870  2
6871  0
6872  0
6873  1
6874  4
6875  0
6876  1
6877  0
6878  0
6879  0
6880  0
6881  0
6882  0
6883  0
6884  0
6885  0
6886  0
6887  0
6888  2
6889  1
6890  1
6891  1
6892  1
6893  0
6894  0
6895  0
6896  2
6897  0
6898  0
6899  0
6900  1
6901  1
6902  1
6903  0
6904  1
6905  1
6906  0
6907  1
6908  1
6909  2
6910  0
6911  1
6912  0
6913  0
6914  0
6915  0
6916  1
6917  0
6918  1
6919  0
6920  0
6921  0
6922  0
6923  1
6924  1
6925  1
6926  0
6927  0
6928  0
6929  0
6930  4
6931  1
6932  1
6933  1
6934  0
6935  1
6936  1
6937  0
6938  1
6939  0
6940  0
6941  1
6942  1
6943  1
6944  0
6945  0
6946  1
6947  1
6948  0
6949  0
6950  0
6951  0
6952  1
6953  0
6954  1
6955  0
6956  2
6957  1
6958  2
6959  0
6960  0
6961  1
6962  0
6963  1
6964  1
6965  0
6966  2
6967  0
6968  0
6969  0
6970  0
6971  0
6972  1
6973  0
6974  0
6975  0
6976  1
6977  2
6978  1
6979  1
6980  0
6981  1
6982  1
6983  0
6984  2
6985  1
6986  1
6987  2
6988  0
6989  1
6990  0
6991  3
6992  0
6993  1
6994  0
6995  0
6996  0
6997  0
6998  1
6999  0
7000  0
7001  0
7002  3
7003  0
7004  0
7005  0
7006  0
7007  0
7008  1
7009  1
7010  0
7011  0
7012  2
7013  0
7014  1
7015  0
7016  0
7017  1
7018  1
7019  1
7020  0
7021  1
7022  0
7023  0
7024  0
7025  0
7026  0
7027  1
7028  1
7029  0
7030  2
7031  1
7032  0
7033  2
7034  1
7035  2
7036  0
7037  1
7038  1
7039  1
7040  1
7041  1
7042  0
7043  1
7044  1
7045  2
7046  0
7047  0
7048  2
7049  0
7050  1
7051  0
7052  1
7053  0
7054  0
7055  0
7056  0
7057  0
7058  1
7059  0
7060  1
7061  1
7062  0
7063  1
7064  0
7065  1
7066  0
7067  1
7068  1
7069  1
7070  0
7071  1
7072  1
7073  1
7074  1
7075  1
7076  0
7077  1
7078  0
7079  2
7080  1
7081  0
7082  0
7083  1
7084  0
7085  0
7086  0
7087  1
7088  0
7089  0
7090  0
7091  1
7092  1
7093  1
7094  0
7095  2
7096  1
7097  0
7098  1
7099  1
7100  0
7101  1
7102  2
7103  0
7104  0
7105  0
7106  0
7107  0
7108  1
7109  1
7110  0
7111  1
7112  2
7113  2
7114  0
7115  1
7116  0
7117  1
7118  2
7119  1
7120  0
7121  2
7122  0
7123  0
7124  0
7125  1
7126  0
7127  0
7128  1
7129  0
7130  0
7131  1
7132  0
7133  0
7134  0
7135  0
7136  1
7137  0
7138  1
7139  0
7140  0
7141  1
7142  0
7143  0
7144  1
7145  0
7146  1
7147  1
7148  2
7149  0
7150  0
7151  0
7152  1
7153  0
7154  2
7155  0
7156  0
7157  1
7158  0
7159  0
7160  2
7161  0
7162  3
7163  2
7164  2
7165  2
7166  0
7167  0
7168  1
7169  0
7170  0
7171  0
7172  0
7173  0
7174  2
7175  1
7176  1
7177  1
7178  0
7179  1
7180  1
7181  0
7182  1
7183  1
7184  0
7185  2
7186  0
7187  3
7188  1
7189  0
7190  2
7191  1
7192  1
7193  1
7194  0
7195  0
7196  0
7197  0
7198  2
7199  3
7200  1
7201  1
7202  3
7203  1
7204  0
7205  0
7206  1
7207  1
7208  0
7209  0
7210  1
7211  1
7212  1
7213  0
7214  0
7215  3
7216  1
7217  0
7218  0
7219  0
7220  0
7221  0
7222  2
7223  1
7224  0
7225  2
7226  0
7227  1
7228  1
7229  0
7230  0
7231  1
7232  0
7233  0
7234  0
7235  0
7236  0
7237  0
7238  1
7239  1
7240  1
7241  2
7242  1
7243  1
7244  1
7245  0
7246  1
7247  1
7248  1
7249  0
7250  1
7251  1
7252  1
7253  1
7254  0
7255  2
7256  1
7257  0
7258  0
7259  0
7260  0
7261  1
7262  4
7263  2
7264  0
7265  0
7266  0
7267  1
7268  0
7269  1
7270  0
7271  0
7272  2
7273  2
7274  2
7275  1
7276  0
7277  3
7278  1
7279  1
7280  0
7281  3
7282  0
7283  3
7284  2
7285  1
7286  1
7287  1
7288  1
7289  1
7290  0
7291  1
7292  0
7293  0
7294  0
7295  1
7296  1
7297  0
7298  1
7299  0
7300  0
7301  2
7302  1
7303  1
7304  2
7305  0
7306  0
7307  2
7308  0
7309  3
7310  2
7311  2
7312  0
7313  1
7314  0
7315  3
7316  0
7317  2
7318  2
7319  0
7320  1
7321  1
7322  1
7323  0
7324  1
7325  0
7326  1
7327  0
7328  0
7329  0
7330  0
7331  1
7332  0
7333  2
7334  3
7335  0
7336  2
7337  0
7338  1
7339  1
7340  2
7341  1
7342  1
7343  0
7344  0
7345  0
7346  2
7347  1
7348  1
7349  0
7350  0
7351  0
7352  0
7353  1
7354  1
7355  1
7356  4
7357  0
7358  3
7359  1
7360  0
7361  2
7362  0
7363  2
7364  0
7365  2
7366  0
7367  2
7368  3
7369  1
7370  4
7371  2
7372  5
7373  4
7374  1
7375  2
7376  0
7377  2
7378  5
7379  1
7380  1
7381  1
7382  3
7383  0
7384  2
7385  3
7386  1
7387  3
7388  3
7389  1
7390  5
7391  1
7392  1
7393  0
7394  2
7395  4
7396  4
7397  1
7398  7
7399  3
7400  1
7401  1
7402  1
7403  2
7404  1
7405  3
7406  2
7407  2
7408  1
7409  0
7410  3
7411  4
7412  0
7413  4
7414  1
7415  2
7416  2
7417  0
7418  1
7419  1
7420  1
7421  2
7422  1
7423  1
7424  1
7425  2
7426  3
7427  0
7428  1
7429  1
7430  0
7431  2
7432  0
7433  2
7434  2
7435  1
7436  2
7437  0
7438  1
7439  0
7440  2
7441  0
7442  0
7443  2
7444  2
7445  1
7446  3
7447  2
7448  0
7449  2
7450  1
7451  0
7452  1
7453  0
7454  1
7455  2
7456  2
7457  1
7458  0
7459  1
7460  0
7461  1
7462  3
7463  1
7464  0
7465  0
7466  3
7467  1
7468  3
7469  0
7470  1
7471  1
7472  0
7473  0
7474  2
7475  1
7476  1
7477  1
7478  2
7479  1
7480  2
7481  0
7482  0
7483  0
7484  1
7485  1
7486  1
7487  1
7488  1
7489  2
7490  1
7491  1
7492  1
7493  2
7494  0
7495  1
7496  0
7497  0
7498  1
7499  4
7500  0
7501  3
7502  2
7503  0
7504  0
7505  1
7506  0
7507  1
7508  3
7509  1
7510  0
7511  2
7512  1
7513  0
7514  1
7515  1
7516  0
7517  2
7518  3
7519  0
7520  2
7521  2
7522  0
7523  2
7524  0
7525  2
7526  0
7527  4
7528  1
7529  2
7530  2
7531  0
7532  1
7533  1
7534  4
7535  1
7536  3
7537  0
7538  0
7539  2
7540  0
7541  2
7542  1
7543  1
7544  2
7545  3
7546  2
7547  1
7548  3
7549  1
7550  0
7551  0
7552  1
7553  0
7554  3
7555  1
7556  2
7557  0
7558  1
7559  2
7560  1
7561  4
7562  1
7563  3
7564  1
7565  3
7566  3
7567  0
7568  3
7569  3
7570  0
7571  1
7572  2
7573  0
7574  1
7575  1
7576  2
7577  6
7578  1
7579  4
7580  4
7581  4
7582  4
7583  2
7584  2
7585  2
7586  2
7587  3
7588  4
7589  2
7590  3
7591  3
7592  2
7593  4
7594  3
7595  4
7596  1
7597  2
7598  1
7599  3
7600  3
7601  3
7602  4
7603  1
7604  1
7605  1
7606  2
7607  4
7608  3
7609  2
7610  5
7611  5
7612  5
7613  1
7614  5
7615  1
7616  4
7617  1
7618  6
7619  1
7620  5
7621  0
7622  1
7623  3
7624  4
7625  4
7626  3
7627  3
7628  7
7629  4
7630  2
7631  3
7632  6
7633  6
7634  6
7635  3
7636  5
7637  5
7638  7
7639  5
7640  2
7641  6
7642  5
7643  6
7644  10
7645  4
7646  5
7647  11
7648  7
7649  5
7650  8
7651  10
7652  12
7653  11
7654  10
7655  10
7656  12
7657  13
7658  10
7659  13
7660  14
7661  14
7662  17
7663  13
7664  26
7665  11
7666  25
7667  20
7668  20
7669  15
7670  29
7671  27
7672  30
7673  35
7674  41
7675  47
7676  32
7677  39
7678  42
7679  46
7680  42
7681  78
7682  64
7683  63
7684  65
7685  64
7686  78
7687  89
7688  89
7689  128
7690  134
7691  121
7692  120
7693  133
7694  148
7695  138
7696  160
7697  173
7698  160
7699  183
7700  189
7701  197
7702  212
7703  208
7704  233
7705  196
7706  247
7707  241
7708  219
7709  243
7710  261
7711  246
7712  248
7713  257
7714  229
7715  268
7716  246
7717  231
7718  236
7719  238
7720  223
7721  199
7722  221
7723  192
7724  189
7725  165
7726  166
7727  158
7728  153
7729  150
7730  122
7731  122
7732  118
7733  108
7734  69
7735  83
7736  76
7737  64
7738  49
7739  46
7740  50
7741  47
7742  29
7743  28
7744  24
7745  14
7746  16
7747  16
7748  19
7749  12
7750  13
7751  11
7752  14
7753  9
7754  3
7755  9
7756  4
7757  3
7758  3
7759  5
7760  3
7761  3
7762  2
7763  1
7764  1
7765  2
7766  2
7767  0
7768  0
7769  0
7770  3
7771  1
7772  2
7773  0
7774  0
7775  1
7776  1
7777  0
7778  0
7779  1
7780  1
7781  0
7782  1
7783  0
7784  0
7785  0
7786  0
7787  0
7788  0
7789  0
7790  2
7791  1
7792  0
7793  1
7794  0
7795  2
7796  0
7797  0
7798  0
7799  0
7800  0
7801  1
7802  0
7803  1
7804  1
7805  0
7806  1
7807  0
7808  0
7809  0
7810  0
7811  0
7812  0
7813  0
7814  0
7815  0
7816  0
7817  0
7818  0
7819  0
7820  0
7821  0
7822  0
7823  0
7824  0
7825  0
7826  1
7827  0
7828  0
7829  0
7830  0
7831  0
7832  0
7833  0
7834  0
7835  0
7836  0
7837  0
7838  0
7839  0
7840  0
7841  0
7842  0
7843  0
7844  0
7845  0
7846  0
7847  0
7848  0
7849  0
7850  0
7851  0
7852  0
7853  0
7854  0
7855  0
7856  1
7857  0
7858  0
7859  0
7860  0
7861  0
7862  0
7863  0
7864  0
7865  0
7866  0
7867  0
7868  0
7869  0
7870  0
7871  0
7872  0
7873  0
7874  0
7875  0
7876  0
7877  0
7878  0
7879  0
7880  0
7881  0
7882  0
7883  0
7884  0
7885  0
7886  0
7887  0
7888  0
7889  0
7890  0
7891  0
7892  0
7893  0
7894  0
7895  0
7896  0
7897  0
7898  0
7899  0
7900  0
7901  0
7902  0
7903  0
7904  0
7905  0
7906  0
7907  0
7908  0
7909  0
7910  0
7911  0
7912  0
7913  0
7914  0
7915  0
7916  0
7917  0
7918  0
7919  0
7920  0
7921  0
7922  0
7923  0
7924  0
7925  0
7926  0
7927  0
7928  0
7929  0
7930  0
7931  0
7932  0
7933  0
7934  0
7935  0
7936  0
7937  0
7938  0
7939  0
7940  0
7941  0
7942  0
7943  0
7944  0
7945  0
7946  0
7947  0
7948  0
7949  0
7950  0
7951  0
7952  0
7953  0
7954  0
7955  0
7956  0
7957  0
7958  0
7959  0
7960  0
7961  0
7962  0
7963  0
7964  0
7965  0
7966  0
7967  0
7968  0
7969  0
7970  0
7971  0
7972  0
7973  0
7974  0
7975  0
7976  0
7977  0
7978  0
7979  0
7980  0
7981  0
7982  0
7983  0
7984  0
7985  0
7986  0
7987  0
7988  0
7989  0
7990  0
7991  0
7992  0
7993  0
7994  0
7995  0
7996  0
7997  0
7998  0
7999  0
8000  0
8001  0
8002  0
8003  0
8004  0
8005  0
8006  0
8007  0
8008  0
8009  0
8010  0
8011  0
8012  0
8013  0
8014  0
8015  0
8016  0
8017  0
8018  0
8019  0
8020  0
8021  0
8022  0
8023  0
8024  0
8025  0
8026  0
8027  0
8028  0
8029  0
8030  0
8031  0
8032  0
8033  0
8034  1
8035  0
8036  0
8037  0
8038  0
8039  0
8040  0
8041  0
8042  0
8043  0
8044  0
8045  0
8046  0
8047  0
8048  0
8049  0
8050  0
8051  0
8052  0
8053  0
8054  0
8055  0
8056  0
8057  0
8058  0
8059  0
8060  0
8061  0
8062  0
8063  0
8064  0
8065  0
8066  0
8067  0
8068  0
8069  0
8070  0
8071  0
8072  0
8073  0
8074  0
8075  0
8076  0
8077  0
8078  0
8079  0
8080  0
8081  0
8082  0
8083  0
8084  0
8085  0
8086  0
8087  0
8088  0
8089  0
8090  0
8091  0
8092  0
8093  0
8094  0
8095  0
8096  0
8097  0
8098  0
8099  0
8100  0
8101  0
8102  0
8103  0
8104  0
8105  0
8106  0
8107  0
8108  0
8109  0
8110  0
8111  0
8112  0
8113  0
8114  0
8115  0
8116  0
8117  0
8118  0
8119  0
8120  0
8121  0
8122  0
8123  0
8124  0
8125  0
8126  0
8127  0
8128  0
8129  0
8130  0
8131  0
8132  0
8133  0
8134  0
8135  0
8136  0
8137  0
8138  0
8139  0
8140  0
8141  0
8142  0
8143  0
8144  0
8145  0
8146  0
8147  0
8148  0
8149  0
8150  0
8151  0
8152  0
8153  0
8154  0
8155  0
8156  0
8157  0
8158  0
8159  0
8160  0
8161  0
8162  0
8163  0
8164  0
8165  0
8166  0
8167  0
8168  0
8169  0
8170  0
8171  0
8172  0
8173  0
8174  0
8175  0
8176  0
8177  0
8178  0
8179  0
8180  0
8181  1
8182  0
8183  0
8184  0
8185  0
8186  0
8187  0
8188  0
8189  0
8190  0
8191  0
