0  355
1  0
2  0
3  0
4  0
5  0
6  0
7  0
8  0
9  0
10  0
11  0
12  0
13  0
14  0
15  0
16  0
17  0
18  0
19  0
20  0
21  0
22  0
23  0
24  0
25  0
26  0
27  0
28  0
29  0
30  0
31  0
32  0
33  0
34  0
35  0
36  0
37  0
38  0
39  0
40  0
41  0
42  0
43  0
44  0
45  0
46  0
47  0
48  0
49  0
50  0
51  0
52  0
53  0
54  0
55  0
56  0
57  0
58  0
59  0
60  0
61  0
62  0
63  0
64  0
65  0
66  0
67  0
68  0
69  0
70  0
71  0
72  0
73  0
74  0
75  0
76  0
77  0
78  0
79  0
80  0
81  0
82  0
83  0
84  0
85  0
86  0
87  0
88  0
89  0
90  0
91  0
92  0
93  0
94  0
95  0
96  0
97  0
98  0
99  0
100  0
101  0
102  0
103  0
104  0
105  0
106  0
107  0
108  0
109  0
110  0
111  0
112  0
113  0
114  0
115  0
116  0
117  0
118  0
119  0
120  0
121  0
122  0
123  0
124  0
125  0
126  0
127  0
128  0
129  0
130  0
131  0
132  0
133  0
134  0
135  0
136  0
137  0
138  0
139  0
140  0
141  0
142  0
143  0
144  0
145  0
146  0
147  0
148  0
149  0
150  0
151  0
152  0
153  0
154  0
155  0
156  0
157  0
158  0
159  0
160  0
161  0
162  0
163  0
164  0
165  0
166  0
167  0
168  0
169  0
170  0
171  0
172  0
173  0
174  0
175  0
176  0
177  0
178  0
179  0
180  0
181  0
182  0
183  0
184  0
185  0
186  0
187  0
188  0
189  0
190  0
191  0
192  0
193  0
194  0
195  0
196  0
197  0
198  0
199  0
200  0
201  0
202  0
203  0
204  0
205  0
206  0
207  0
208  0
209  0
210  0
211  0
212  0
213  0
214  0
215  0
216  0
217  0
218  0
219  0
220  0
221  0
222  0
223  0
224  0
225  0
226  0
227  0
228  0
229  0
230  0
231  0
232  0
233  0
234  0
235  0
236  0
237  0
238  0
239  0
240  0
241  0
242  0
243  0
244  0
245  0
246  0
247  0
248  0
249  0
250  0
251  0
252  0
253  0
254  0
255  0
256  0
257  0
258  0
259  0
260  0
261  0
262  0
263  0
264  0
265  0
266  0
267  0
268  0
269  0
270  0
271  0
272  0
273  0
274  0
275  0
276  0
277  0
278  0
279  0
280  0
281  0
282  0
283  0
284  0
285  0
286  0
287  0
288  0
289  0
290  0
291  0
292  0
293  0
294  0
295  0
296  0
297  0
298  0
299  0
300  0
301  0
302  0
303  0
304  0
305  0
306  0
307  0
308  0
309  0
310  0
311  0
312  0
313  0
314  0
315  0
316  0
317  0
318  0
319  0
320  0
321  0
322  0
323  0
324  0
325  0
326  0
327  0
328  0
329  0
330  0
331  0
332  0
333  0
334  0
335  0
336  0
337  0
338  0
339  0
340  0
341  0
342  0
343  0
344  0
345  0
346  0
347  0
348  0
349  0
350  0
351  0
352  0
353  0
354  0
355  0
356  0
357  0
358  0
359  0
360  0
361  0
362  0
363  0
364  0
365  0
366  0
367  0
368  0
369  0
370  0
371  0
372  0
373  0
374  0
375  0
376  0
377  0
378  0
379  0
380  0
381  0
382  0
383  0
384  0
385  0
386  0
387  0
388  0
389  0
390  0
391  0
392  0
393  0
394  0
395  0
396  0
397  0
398  0
399  0
400  0
401  0
402  0
403  0
404  0
405  0
406  0
407  0
408  0
409  0
410  0
411  0
412  0
413  0
414  0
415  0
416  0
417  0
418  0
419  0
420  0
421  0
422  0
423  0
424  0
425  0
426  0
427  0
428  0
429  0
430  0
431  0
432  0
433  0
434  0
435  0
436  0
437  0
438  0
439  0
440  0
441  0
442  0
443  0
444  0
445  0
446  0
447  0
448  0
449  0
450  0
451  0
452  0
453  0
454  0
455  0
456  0
457  0
458  0
459  0
460  0
461  0
462  0
463  0
464  0
465  0
466  0
467  0
468  0
469  0
470  0
471  0
472  0
473  0
474  0
475  0
476  0
477  0
478  0
479  0
480  0
481  0
482  0
483  0
484  0
485  0
486  0
487  0
488  0
489  0
490  0
491  0
492  0
493  0
494  0
495  0
496  0
497  0
498  0
499  0
500  0
501  0
502  0
503  0
504  0
505  0
506  0
507  0
508  0
509  0
510  0
511  0
512  0
513  0
514  0
515  0
516  0
517  0
518  0
519  0
520  0
521  0
522  0
523  0
524  0
525  0
526  0
527  0
528  0
529  0
530  0
531  0
532  0
533  0
534  0
535  0
536  0
537  0
538  0
539  0
540  0
541  0
542  0
543  0
544  0
545  0
546  0
547  0
548  0
549  0
550  0
551  0
552  0
553  0
554  0
555  0
556  0
557  0
558  0
559  0
560  0
561  0
562  0
563  0
564  0
565  0
566  0
567  0
568  0
569  1
570  2
571  3
572  10
573  70
574  147
575  147
576  102
577  124
578  118
579  120
580  108
581  102
582  88
583  95
584  88
585  93
586  91
587  88
588  91
589  89
590  87
591  79
592  81
593  63
594  68
595  64
596  72
597  77
598  55
599  70
600  78
601  70
602  66
603  51
604  64
605  71
606  66
607  64
608  61
609  62
610  72
611  62
612  51
613  58
614  53
615  44
616  60
617  57
618  62
619  47
620  53
621  59
622  67
623  55
624  58
625  58
626  52
627  44
628  38
629  52
630  66
631  57
632  63
633  40
634  40
635  43
636  59
637  53
638  48
639  46
640  63
641  38
642  40
643  40
644  46
645  50
646  34
647  41
648  33
649  53
650  42
651  45
652  33
653  50
654  42
655  47
656  48
657  39
658  42
659  46
660  35
661  39
662  30
663  37
664  38
665  39
666  30
667  39
668  44
669  42
670  42
671  45
672  34
673  49
674  39
675  51
676  46
677  34
678  33
679  37
680  46
681  39
682  50
683  41
684  53
685  42
686  32
687  54
688  32
689  36
690  33
691  34
692  34
693  29
694  33
695  33
696  56
697  41
698  35
699  34
700  32
701  32
702  32
703  24
704  29
705  29
706  35
707  19
708  30
709  25
710  29
711  43
712  27
713  28
714  34
715  18
716  24
717  28
718  24
719  26
720  23
721  25
722  30
723  21
724  28
725  24
726  25
727  26
728  19
729  33
730  37
731  19
732  25
733  21
734  25
735  29
736  23
737  31
738  26
739  23
740  19
741  29
742  37
743  25
744  24
745  33
746  21
747  36
748  26
749  25
750  16
751  34
752  23
753  23
754  25
755  21
756  24
757  22
758  17
759  16
760  26
761  23
762  25
763  16
764  23
765  26
766  17
767  21
768  24
769  23
770  16
771  26
772  24
773  16
774  24
775  16
776  22
777  21
778  12
779  21
780  22
781  13
782  21
783  22
784  24
785  13
786  18
787  16
788  13
789  22
790  24
791  23
792  15
793  27
794  20
795  22
796  17
797  22
798  30
799  17
800  14
801  17
802  11
803  20
804  29
805  18
806  17
807  16
808  16
809  16
810  21
811  15
812  13
813  15
814  22
815  13
816  17
817  15
818  17
819  16
820  19
821  13
822  17
823  21
824  21
825  16
826  12
827  11
828  12
829  11
830  12
831  13
832  20
833  10
834  10
835  14
836  16
837  17
838  12
839  24
840  12
841  14
842  19
843  10
844  14
845  16
846  23
847  14
848  9
849  14
850  9
851  10
852  18
853  11
854  16
855  13
856  19
857  15
858  15
859  15
860  17
861  12
862  12
863  14
864  8
865  20
866  8
867  6
868  18
869  15
870  13
871  8
872  15
873  9
874  12
875  8
876  8
877  11
878  13
879  5
880  12
881  18
882  13
883  7
884  14
885  10
886  13
887  7
888  13
889  17
890  12
891  12
892  11
893  10
894  11
895  12
896  6
897  12
898  13
899  11
900  12
901  10
902  9
903  13
904  12
905  3
906  6
907  10
908  13
909  13
910  9
911  9
912  13
913  6
914  10
915  9
916  7
917  8
918  8
919  9
920  3
921  12
922  10
923  6
924  6
925  10
926  9
927  10
928  14
929  9
930  7
931  10
932  5
933  6
934  12
935  9
936  8
937  8
938  9
939  10
940  7
941  8
942  8
943  13
944  2
945  6
946  4
947  5
948  7
949  4
950  11
951  3
952  7
953  8
954  3
955  8
956  5
957  6
958  6
959  5
960  12
961  1
962  11
963  3
964  10
965  2
966  5
967  5
968  7
969  8
970  7
971  6
972  8
973  4
974  9
975  5
976  7
977  10
978  3
979  11
980  6
981  5
982  8
983  7
984  4
985  4
986  10
987  6
988  3
989  4
990  7
991  7
992  5
993  8
994  3
995  4
996  8
997  2
998  3
999  8
1000  6
1001  5
1002  4
1003  8
1004  3
1005  5
1006  3
1007  5
1008  4
1009  1
1010  5
1011  4
1012  2
1013  5
1014  2
1015  6
1016  2
1017  7
1018  1
1019  4
1020  5
1021  5
1022  3
1023  4
1024  5
1025  0
1026  3
1027  5
1028  3
1029  5
1030  7
1031  3
1032  4
1033  4
1034  1
1035  5
1036  3
1037  5
1038  6
1039  5
1040  6
1041  1
1042  6
1043  4
1044  1
1045  1
1046  3
1047  7
1048  4
1049  5
1050  5
1051  2
1052  3
1053  6
1054  3
1055  2
1056  3
1057  6
1058  1
1059  2
1060  6
1061  1
1062  4
1063  6
1064  3
1065  9
1066  5
1067  4
1068  2
1069  4
1070  6
1071  6
1072  5
1073  7
1074  4
1075  5
1076  6
1077  3
1078  2
1079  2
1080  2
1081  3
1082  1
1083  2
1084  1
1085  5
1086  1
1087  3
1088  3
1089  1
1090  1
1091  3
1092  5
1093  4
1094  3
1095  6
1096  1
1097  5
1098  5
1099  6
1100  3
1101  2
1102  2
1103  2
1104  1
1105  2
1106  2
1107  1
1108  3
1109  4
1110  3
1111  2
1112  3
1113  2
1114  3
1115  3
1116  4
1117  2
1118  4
1119  4
1120  5
1121  1
1122  5
1123  3
1124  2
1125  2
1126  2
1127  3
1128  4
1129  1
1130  1
1131  2
1132  3
1133  2
1134  2
1135  3
1136  2
1137  6
1138  5
1139  3
1140  0
1141  1
1142  4
1143  2
1144  3
1145  3
1146  3
1147  4
1148  5
1149  2
1150  3
1151  1
1152  3
1153  0
1154  1
1155  0
1156  3
1157  3
1158  3
1159  5
1160  1
1161  3
1162  2
1163  1
1164  0
1165  1
1166  4
1167  1
1168  0
1169  4
1170  2
1171  4
1172  0
1173  2
1174  4
1175  2
1176  2
1177  1
1178  0
1179  2
1180  3
1181  1
1182  0
1183  1
1184  0
1185  0
1186  3
1187  2
1188  1
1189  2
1190  4
1191  5
1192  0
1193  0
1194  3
1195  4
1196  5
1197  2
1198  2
1199  2
1200  0
1201  1
1202  1
1203  2
1204  0
1205  1
1206  4
1207  4
1208  3
1209  1
1210  0
1211  0
1212  1
1213  4
1214  2
1215  2
1216  0
1217  2
1218  3
1219  0
1220  2
1221  4
1222  4
1223  0
1224  1
1225  2
1226  0
1227  4
1228  2
1229  4
1230  2
1231  0
1232  2
1233  1
1234  4
1235  2
1236  4
1237  1
1238  1
1239  2
1240  1
1241  1
1242  2
1243  0
1244  6
1245  1
1246  4
1247  4
1248  3
1249  2
1250  1
1251  0
1252  3
1253  1
1254  1
1255  3
1256  0
1257  0
1258  1
1259  4
1260  3
1261  1
1262  0
1263  2
1264  4
1265  1
1266  1
1267  1
1268  3
1269  2
1270  1
1271  0
1272  0
1273  1
1274  3
1275  1
1276  0
1277  1
1278  1
1279  2
1280  0
1281  1
1282  1
1283  2
1284  0
1285  3
1286  1
1287  0
1288  4
1289  3
1290  2
1291  3
1292  1
1293  2
1294  2
1295  2
1296  5
1297  0
1298  1
1299  1
1300  2
1301  2
1302  2
1303  3
1304  1
1305  3
1306  1
1307  1
1308  1
1309  2
1310  0
1311  1
1312  1
1313  1
1314  2
1315  3
1316  1
1317  2
1318  2
1319  0
1320  5
1321  0
1322  0
1323  1
1324  3
1325  1
1326  1
1327  1
1328  0
1329  0
1330  2
1331  2
1332  0
1333  2
1334  0
1335  2
1336  0
1337  1
1338  4
1339  1
1340  1
1341  2
1342  1
1343  1
1344  0
1345  1
1346  1
1347  1
1348  2
1349  1
1350  1
1351  2
1352  0
1353  0
1354  3
1355  0
1356  0
1357  1
1358  0
1359  1
1360  2
1361  3
1362  3
1363  0
1364  1
1365  0
1366  0
1367  2
1368  1
1369  1
1370  0
1371  0
1372  0
1373  0
1374  2
1375  0
1376  1
1377  1
1378  1
1379  2
1380  2
1381  1
1382  1
1383  0
1384  1
1385  1
1386  1
1387  2
1388  0
1389  1
1390  1
1391  1
1392  2
1393  2
1394  0
1395  1
1396  0
1397  1
1398  0
1399  1
1400  3
1401  2
1402  1
1403  1
1404  1
1405  2
1406  1
1407  1
1408  3
1409  0
1410  0
1411  0
1412  1
1413  0
1414  1
1415  1
1416  1
1417  1
1418  0
1419  1
1420  0
1421  1
1422  3
1423  1
1424  0
1425  3
1426  1
1427  2
1428  1
1429  1
1430  2
1431  0
1432  0
1433  1
1434  1
1435  4
1436  0
1437  0
1438  1
1439  2
1440  0
1441  0
1442  2
1443  0
1444  1
1445  0
1446  2
1447  1
1448  0
1449  1
1450  0
1451  1
1452  1
1453  0
1454  1
1455  0
1456  1
1457  0
1458  2
1459  0
1460  0
1461  1
1462  3
1463  3
1464  1
1465  1
1466  1
1467  1
1468  3
1469  2
1470  3
1471  2
1472  0
1473  1
1474  1
1475  0
1476  3
1477  0
1478  0
1479  2
1480  3
1481  1
1482  0
1483  0
1484  0
1485  2
1486  1
1487  3
1488  0
1489  1
1490  0
1491  0
1492  1
1493  0
1494  1
1495  1
1496  0
1497  1
1498  1
1499  1
1500  2
1501  0
1502  1
1503  2
1504  2
1505  2
1506  2
1507  0
1508  1
1509  3
1510  2
1511  0
1512  0
1513  1
1514  0
1515  2
1516  2
1517  0
1518  0
1519  1
1520  2
1521  2
1522  0
1523  2
1524  1
1525  1
1526  0
1527  0
1528  3
1529  2
1530  2
1531  2
1532  0
1533  0
1534  0
1535  1
1536  0
1537  0
1538  1
1539  1
1540  2
1541  2
1542  0
1543  1
1544  1
1545  1
1546  1
1547  1
1548  0
1549  2
1550  3
1551  1
1552  0
1553  1
1554  3
1555  1
1556  2
1557  1
1558  1
1559  0
1560  0
1561  2
1562  2
1563  1
1564  2
1565  2
1566  0
1567  0
1568  1
1569  0
1570  0
1571  1
1572  1
1573  0
1574  1
1575  0
1576  1
1577  1
1578  0
1579  1
1580  1
1581  0
1582  0
1583  1
1584  1
1585  0
1586  0
1587  1
1588  1
1589  1
1590  0
1591  2
1592  0
1593  0
1594  1
1595  1
1596  0
1597  1
1598  1
1599  0
1600  1
1601  1
1602  0
1603  0
1604  1
1605  2
1606  1
1607  1
1608  0
1609  1
1610  1
1611  0
1612  2
1613  0
1614  0
1615  0
1616  0
1617  1
1618  1
1619  2
1620  2
1621  1
1622  0
1623  0
1624  1
1625  0
1626  2
1627  1
1628  0
1629  0
1630  2
1631  0
1632  1
1633  2
1634  1
1635  3
1636  1
1637  0
1638  0
1639  1
1640  1
1641  1
1642  1
1643  0
1644  1
1645  0
1646  0
1647  0
1648  1
1649  1
1650  1
1651  0
1652  0
1653  1
1654  2
1655  0
1656  2
1657  0
1658  1
1659  0
1660  0
1661  0
1662  0
1663  0
1664  2
1665  1
1666  0
1667  0
1668  1
1669  0
1670  0
1671  2
1672  0
1673  2
1674  2
1675  0
1676  0
1677  0
1678  0
1679  0
1680  3
1681  1
1682  0
1683  0
1684  1
1685  3
1686  0
1687  3
1688  2
1689  1
1690  0
1691  2
1692  1
1693  2
1694  1
1695  1
1696  0
1697  0
1698  3
1699  3
1700  0
1701  2
1702  1
1703  1
1704  1
1705  3
1706  1
1707  2
1708  1
1709  1
1710  0
1711  0
1712  1
1713  1
1714  1
1715  0
1716  2
1717  2
1718  0
1719  1
1720  0
1721  1
1722  0
1723  1
1724  0
1725  1
1726  1
1727  2
1728  0
1729  0
1730  1
1731  1
1732  0
1733  2
1734  1
1735  0
1736  1
1737  0
1738  1
1739  2
1740  0
1741  1
1742  2
1743  1
1744  1
1745  0
1746  3
1747  2
1748  2
1749  2
1750  0
1751  0
1752  0
1753  0
1754  3
1755  0
1756  1
1757  2
1758  3
1759  0
1760  2
1761  2
1762  0
1763  0
1764  1
1765  2
1766  1
1767  1
1768  1
1769  2
1770  1
1771  2
1772  1
1773  0
1774  0
1775  1
1776  1
1777  0
1778  0
1779  0
1780  3
1781  1
1782  1
1783  3
1784  2
1785  0
1786  1
1787  0
1788  0
1789  0
1790  0
1791  0
1792  0
1793  1
1794  2
1795  0
1796  0
1797  1
1798  1
1799  1
1800  1
1801  0
1802  1
1803  0
1804  1
1805  1
1806  0
1807  1
1808  0
1809  1
1810  1
1811  2
1812  1
1813  1
1814  1
1815  0
1816  0
1817  1
1818  1
1819  0
1820  2
1821  0
1822  0
1823  0
1824  0
1825  0
1826  2
1827  0
1828  1
1829  2
1830  1
1831  0
1832  0
1833  0
1834  0
1835  2
1836  0
1837  1
1838  0
1839  3
1840  1
1841  1
1842  0
1843  1
1844  3
1845  1
1846  0
1847  0
1848  0
1849  0
1850  0
1851  0
1852  1
1853  3
1854  1
1855  0
1856  0
1857  0
1858  0
1859  0
1860  0
1861  1
1862  1
1863  1
1864  0
1865  2
1866  0
1867  1
1868  0
1869  0
1870  2
1871  4
1872  1
1873  0
1874  1
1875  0
1876  1
1877  0
1878  0
1879  1
1880  1
1881  1
1882  1
1883  0
1884  1
1885  0
1886  2
1887  2
1888  0
1889  0
1890  1
1891  2
1892  1
1893  1
1894  0
1895  0
1896  0
1897  1
1898  0
1899  1
1900  1
1901  0
1902  0
1903  1
1904  1
1905  1
1906  1
1907  0
1908  0
1909  0
1910  0
1911  0
1912  1
1913  1
1914  1
1915  1
1916  2
1917  1
1918  0
1919  0
1920  1
1921  0
1922  0
1923  0
1924  0
1925  0
1926  1
1927  2
1928  1
1929  0
1930  0
1931  1
1932  0
1933  1
1934  0
1935  2
1936  0
1937  2
1938  0
1939  0
1940  1
1941  3
1942  1
1943  2
1944  0
1945  1
1946  1
1947  1
1948  2
1949  0
1950  1
1951  0
1952  2
1953  2
1954  0
1955  1
1956  1
1957  0
1958  0
1959  0
1960  1
1961  2
1962  1
1963  0
1964  1
1965  2
1966  0
1967  1
1968  2
1969  1
1970  1
1971  1
1972  1
1973  0
1974  0
1975  0
1976  0
1977  1
1978  1
1979  0
1980  3
1981  1
1982  1
1983  0
1984  0
1985  1
1986  1
1987  1
1988  1
1989  0
1990  1
1991  2
1992  0
1993  2
1994  0
1995  1
1996  1
1997  0
1998  0
1999  0
2000  1
2001  1
2002  0
2003  1
2004  1
2005  1
2006  0
2007  1
2008  0
2009  1
2010  0
2011  4
2012  0
2013  0
2014  1
2015  1
2016  0
2017  0
2018  0
2019  1
2020  0
2021  0
2022  1
2023  1
2024  0
2025  0
2026  0
2027  0
2028  0
2029  2
2030  2
2031  0
2032  1
2033  0
2034  2
2035  1
2036  1
2037  1
2038  2
2039  1
2040  3
2041  1
2042  1
2043  0
2044  0
2045  1
2046  1
2047  0
2048  2
2049  1
2050  1
2051  0
2052  1
2053  0
2054  0
2055  1
2056  1
2057  0
2058  0
2059  0
2060  0
2061  0
2062  0
2063  0
2064  0
2065  0
2066  1
2067  2
2068  1
2069  0
2070  1
2071  1
2072  1
2073  1
2074  0
2075  0
2076  0
2077  0
2078  1
2079  0
2080  1
2081  0
2082  0
2083  1
2084  1
2085  0
2086  1
2087  0
2088  1
2089  1
2090  1
2091  2
2092  0
2093  0
2094  0
2095  0
2096  0
2097  0
2098  0
2099  0
2100  0
2101  1
2102  0
2103  0
2104  1
2105  0
2106  2
2107  0
2108  2
2109  1
2110  1
2111  0
2112  0
2113  0
2114  0
2115  0
2116  1
2117  1
2118  0
2119  0
2120  0
2121  0
2122  1
2123  1
2124  0
2125  0
2126  2
2127  1
2128  1
2129  2
2130  0
2131  0
2132  0
2133  2
2134  0
2135  0
2136  1
2137  0
2138  0
2139  0
2140  0
2141  0
2142  0
2143  1
2144  0
2145  0
2146  0
2147  0
2148  1
2149  1
2150  0
2151  3
2152  1
2153  2
2154  0
2155  0
2156  1
2157  1
2158  0
2159  0
2160  0
2161  2
2162  1
2163  1
2164  3
2165  1
2166  2
2167  0
2168  1
2169  1
2170  0
2171  0
2172  1
2173  3
2174  1
2175  0
2176  1
2177  0
2178  0
2179  0
2180  0
2181  2
2182  3
2183  0
2184  1
2185  0
2186  0
2187  1
2188  1
2189  0
2190  1
2191  0
2192  2
2193  2
2194  0
2195  0
2196  0
2197  1
2198  0
2199  3
2200  1
2201  1
2202  0
2203  1
2204  0
2205  1
2206  1
2207  0
2208  1
2209  2
2210  1
2211  1
2212  0
2213  2
2214  1
2215  2
2216  2
2217  0
2218  0
2219  1
2220  1
2221  0
2222  0
2223  1
2224  0
2225  0
2226  0
2227  1
2228  1
2229  0
2230  1
2231  0
2232  1
2233  1
2234  0
2235  1
2236  0
2237  2
2238  0
2239  0
2240  1
2241  0
2242  1
2243  1
2244  1
2245  0
2246  3
2247  0
2248  2
2249  1
2250  0
2251  0
2252  1
2253  3
2254  1
2255  0
2256  1
2257  1
2258  1
2259  0
2260  0
2261  0
2262  0
2263  1
2264  1
2265  2
2266  1
2267  0
2268  0
2269  0
2270  2
2271  0
2272  0
2273  2
2274  0
2275  0
2276  0
2277  1
2278  1
2279  1
2280  0
2281  0
2282  2
2283  0
2284  0
2285  1
2286  1
2287  2
2288  1
2289  0
2290  0
2291  2
2292  0
2293  0
2294  1
2295  0
2296  1
2297  1
2298  1
2299  0
2300  0
2301  1
2302  0
2303  1
2304  1
2305  0
2306  1
2307  0
2308  0
2309  0
2310  1
2311  1
2312  0
2313  0
2314  1
2315  1
2316  0
2317  1
2318  1
2319  0
2320  1
2321  1
2322  0
2323  0
2324  0
2325  0
2326  0
2327  1
2328  1
2329  2
2330  0
2331  1
2332  1
2333  1
2334  0
2335  1
2336  0
2337  0
2338  0
2339  0
2340  0
2341  1
2342  0
2343  1
2344  4
2345  1
2346  0
2347  1
2348  1
2349  0
2350  1
2351  0
2352  0
2353  0
2354  0
2355  1
2356  1
2357  0
2358  2
2359  1
2360  2
2361  2
2362  0
2363  0
2364  2
2365  0
2366  1
2367  0
2368  0
2369  0
2370  0
2371  1
2372  1
2373  2
2374  0
2375  0
2376  0
2377  2
2378  0
2379  2
2380  0
2381  1
2382  0
2383  0
2384  0
2385  1
2386  3
2387  0
2388  0
2389  0
2390  1
2391  3
2392  0
2393  1
2394  1
2395  1
2396  0
2397  2
2398  1
2399  0
2400  1
2401  0
2402  0
2403  1
2404  0
2405  0
2406  0
2407  0
2408  0
2409  0
2410  0
2411  0
2412  1
2413  3
2414  2
2415  1
2416  3
2417  0
2418  1
2419  0
2420  0
2421  1
2422  1
2423  1
2424  2
2425  1
2426  1
2427  1
2428  1
2429  3
2430  1
2431  1
2432  1
2433  0
2434  1
2435  1
2436  0
2437  2
2438  1
2439  1
2440  1
2441  0
2442  0
2443  1
2444  0
2445  1
2446  1
2447  0
2448  0
2449  1
2450  1
2451  2
2452  0
2453  0
2454  1
2455  0
2456  0
2457  0
2458  2
2459  1
2460  2
2461  0
2462  1
2463  2
2464  1
2465  1
2466  1
2467  0
2468  0
2469  0
2470  0
2471  0
2472  0
2473  0
2474  0
2475  0
2476  1
2477  0
2478  2
2479  0
2480  0
2481  1
2482  0
2483  0
2484  0
2485  0
2486  0
2487  0
2488  0
2489  1
2490  0
2491  1
2492  1
2493  0
2494  1
2495  0
2496  1
2497  0
2498  2
2499  2
2500  0
2501  2
2502  1
2503  0
2504  1
2505  0
2506  1
2507  1
2508  0
2509  1
2510  0
2511  0
2512  1
2513  1
2514  0
2515  0
2516  0
2517  1
2518  1
2519  0
2520  1
2521  0
2522  1
2523  1
2524  0
2525  0
2526  0
2527  0
2528  0
2529  0
2530  0
2531  0
2532  0
2533  0
2534  0
2535  0
2536  0
2537  0
2538  1
2539  0
2540  1
2541  0
2542  0
2543  1
2544  0
2545  1
2546  0
2547  1
2548  0
2549  2
2550  0
2551  1
2552  3
2553  0
2554  0
2555  0
2556  1
2557  0
2558  1
2559  0
2560  0
2561  1
2562  1
2563  0
2564  1
2565  1
2566  0
2567  1
2568  0
2569  1
2570  1
2571  1
2572  1
2573  2
2574  0
2575  0
2576  1
2577  1
2578  0
2579  1
2580  2
2581  3
2582  0
2583  0
2584  0
2585  1
2586  0
2587  0
2588  1
2589  0
2590  0
2591  0
2592  1
2593  1
2594  0
2595  2
2596  0
2597  1
2598  1
2599  1
2600  0
2601  3
2602  0
2603  2
2604  1
2605  1
2606  0
2607  0
2608  1
2609  1
2610  2
2611  0
2612  0
2613  1
2614  1
2615  1
2616  1
2617  0
2618  0
2619  0
2620  0
2621  1
2622  1
2623  1
2624  1
2625  0
2626  1
2627  0
2628  0
2629  0
2630  0
2631  0
2632  0
2633  1
2634  1
2635  0
2636  0
2637  0
2638  0
2639  0
2640  0
2641  0
2642  0
2643  0
2644  0
2645  2
2646  0
2647  1
2648  0
2649  0
2650  0
2651  0
2652  2
2653  0
2654  0
2655  1
2656  0
2657  0
2658  0
2659  1
2660  3
2661  0
2662  0
2663  0
2664  0
2665  0
2666  0
2667  0
2668  1
2669  0
2670  0
2671  0
2672  0
2673  0
2674  0
2675  0
2676  0
2677  0
2678  0
2679  0
2680  0
2681  0
2682  1
2683  1
2684  0
2685  0
2686  0
2687  0
2688  0
2689  2
2690  0
2691  3
2692  0
2693  1
2694  0
2695  1
2696  0
2697  0
2698  0
2699  0
2700  1
2701  1
2702  1
2703  1
2704  0
2705  1
2706  0
2707  0
2708  0
2709  0
2710  0
2711  0
2712  0
2713  0
2714  0
2715  0
2716  0
2717  1
2718  1
2719  0
2720  1
2721  2
2722  0
2723  0
2724  0
2725  0
2726  0
2727  0
2728  0
2729  0
2730  0
2731  0
2732  0
2733  0
2734  2
2735  0
2736  1
2737  0
2738  2
2739  0
2740  0
2741  0
2742  1
2743  0
2744  1
2745  0
2746  0
2747  0
2748  0
2749  1
2750  0
2751  0
2752  0
2753  0
2754  0
2755  0
2756  1
2757  0
2758  0
2759  0
2760  3
2761  0
2762  0
2763  0
2764  0
2765  0
2766  1
2767  1
2768  0
2769  0
2770  0
2771  0
2772  0
2773  0
2774  1
2775  0
2776  1
2777  0
2778  0
2779  0
2780  1
2781  0
2782  0
2783  1
2784  0
2785  0
2786  1
2787  0
2788  0
2789  0
2790  1
2791  0
2792  1
2793  0
2794  1
2795  1
2796  0
2797  0
2798  0
2799  0
2800  0
2801  1
2802  1
2803  0
2804  0
2805  0
2806  1
2807  0
2808  1
2809  0
2810  0
2811  0
2812  0
2813  0
2814  0
2815  3
2816  0
2817  1
2818  0
2819  0
2820  0
2821  0
2822  0
2823  0
2824  1
2825  0
2826  1
2827  0
2828  1
2829  0
2830  0
2831  0
2832  1
2833  1
2834  0
2835  0
2836  0
2837  1
2838  0
2839  0
2840  1
2841  0
2842  0
2843  0
2844  0
2845  0
2846  0
2847  0
2848  0
2849  0
2850  2
2851  0
2852  0
2853  0
2854  1
2855  1
2856  0
2857  0
2858  1
2859  1
2860  1
2861  0
2862  0
2863  0
2864  0
2865  0
2866  0
2867  0
2868  1
2869  0
2870  0
2871  1
2872  1
2873  1
2874  0
2875  0
2876  0
2877  0
2878  0
2879  0
2880  0
2881  0
2882  1
2883  0
2884  0
2885  0
2886  0
2887  0
2888  0
2889  0
2890  0
2891  0
2892  1
2893  0
2894  0
2895  0
2896  1
2897  0
2898  0
2899  0
2900  0
2901  1
2902  0
2903  1
2904  1
2905  0
2906  0
2907  0
2908  1
2909  1
2910  0
2911  0
2912  1
2913  0
2914  0
2915  0
2916  1
2917  0
2918  1
2919  2
2920  0
2921  0
2922  1
2923  2
2924  0
2925  0
2926  0
2927  0
2928  1
2929  0
2930  2
2931  0
2932  0
2933  1
2934  1
2935  0
2936  1
2937  1
2938  1
2939  1
2940  1
2941  0
2942  0
2943  0
2944  0
2945  0
2946  1
2947  1
2948  0
2949  0
2950  1
2951  1
2952  0
2953  0
2954  0
2955  0
2956  1
2957  1
2958  0
2959  0
2960  0
2961  3
2962  0
2963  0
2964  1
2965  1
2966  2
2967  1
2968  1
2969  1
2970  0
2971  0
2972  2
2973  0
2974  1
2975  1
2976  1
2977  0
2978  0
2979  4
2980  1
2981  2
2982  1
2983  0
2984  0
2985  0
2986  0
2987  0
2988  0
2989  1
2990  0
2991  0
2992  0
2993  0
2994  0
2995  1
2996  0
2997  0
2998  0
2999  1
3000  0
3001  2
3002  2
3003  0
3004  0
3005  1
3006  0
3007  1
3008  0
3009  0
3010  1
3011  1
3012  0
3013  0
3014  0
3015  0
3016  1
3017  1
3018  0
3019  0
3020  0
3021  1
3022  0
3023  1
3024  0
3025  1
3026  0
3027  1
3028  0
3029  1
3030  0
3031  0
3032  2
3033  0
3034  0
3035  0
3036  0
3037  0
3038  0
3039  0
3040  0
3041  0
3042  1
3043  0
3044  1
3045  0
3046  0
3047  0
3048  1
3049  1
3050  0
3051  2
3052  0
3053  0
3054  0
3055  1
3056  0
3057  1
3058  0
3059  1
3060  1
3061  0
3062  0
3063  0
3064  0
3065  0
3066  0
3067  0
3068  0
3069  1
3070  1
3071  0
3072  0
3073  0
3074  0
3075  2
3076  1
3077  0
3078  1
3079  0
3080  0
3081  1
3082  0
3083  2
3084  0
3085  1
3086  0
3087  0
3088  0
3089  0
3090  0
3091  0
3092  0
3093  2
3094  0
3095  0
3096  0
3097  0
3098  1
3099  0
3100  0
3101  0
3102  0
3103  0
3104  1
3105  0
3106  0
3107  1
3108  0
3109  1
3110  1
3111  0
3112  2
3113  1
3114  0
3115  0
3116  0
3117  0
3118  0
3119  0
3120  1
3121  0
3122  0
3123  0
3124  0
3125  0
3126  2
3127  0
3128  0
3129  0
3130  0
3131  1
3132  0
3133  0
3134  0
3135  1
3136  0
3137  0
3138  1
3139  0
3140  2
3141  0
3142  0
3143  1
3144  0
3145  1
3146  0
3147  1
3148  0
3149  0
3150  0
3151  1
3152  1
3153  2
3154  0
3155  0
3156  0
3157  0
3158  0
3159  2
3160  2
3161  1
3162  0
3163  0
3164  0
3165  0
3166  1
3167  0
3168  2
3169  0
3170  1
3171  1
3172  0
3173  0
3174  0
3175  2
3176  3
3177  1
3178  0
3179  0
3180  0
3181  1
3182  0
3183  3
3184  0
3185  1
3186  0
3187  1
3188  1
3189  1
3190  0
3191  0
3192  0
3193  1
3194  0
3195  0
3196  1
3197  0
3198  0
3199  0
3200  1
3201  0
3202  0
3203  1
3204  1
3205  1
3206  0
3207  0
3208  2
3209  0
3210  0
3211  0
3212  1
3213  2
3214  1
3215  0
3216  1
3217  0
3218  0
3219  0
3220  0
3221  0
3222  0
3223  1
3224  0
3225  0
3226  0
3227  0
3228  0
3229  0
3230  0
3231  0
3232  1
3233  1
3234  1
3235  1
3236  2
3237  0
3238  1
3239  1
3240  1
3241  1
3242  0
3243  0
3244  1
3245  0
3246  1
3247  0
3248  0
3249  1
3250  0
3251  0
3252  0
3253  1
3254  0
3255  0
3256  0
3257  0
3258  2
3259  1
3260  0
3261  0
3262  0
3263  0
3264  0
3265  0
3266  1
3267  3
3268  0
3269  1
3270  0
3271  1
3272  0
3273  0
3274  0
3275  0
3276  0
3277  1
3278  3
3279  1
3280  0
3281  1
3282  0
3283  0
3284  1
3285  1
3286  1
3287  0
3288  0
3289  0
3290  0
3291  0
3292  1
3293  0
3294  0
3295  0
3296  0
3297  0
3298  2
3299  1
3300  0
3301  0
3302  0
3303  1
3304  0
3305  1
3306  1
3307  2
3308  1
3309  0
3310  2
3311  1
3312  0
3313  2
3314  0
3315  0
3316  1
3317  0
3318  0
3319  0
3320  1
3321  0
3322  1
3323  0
3324  0
3325  0
3326  0
3327  1
3328  0
3329  0
3330  0
3331  0
3332  0
3333  0
3334  0
3335  0
3336  0
3337  1
3338  0
3339  0
3340  2
3341  0
3342  1
3343  1
3344  1
3345  0
3346  0
3347  0
3348  0
3349  0
3350  1
3351  0
3352  0
3353  3
3354  1
3355  0
3356  0
3357  0
3358  0
3359  2
3360  0
3361  0
3362  0
3363  1
3364  0
3365  0
3366  0
3367  1
3368  1
3369  0
3370  1
3371  1
3372  1
3373  1
3374  2
3375  0
3376  0
3377  0
3378  0
3379  0
3380  1
3381  0
3382  1
3383  0
3384  2
3385  0
3386  0
3387  0
3388  0
3389  0
3390  0
3391  2
3392  0
3393  0
3394  0
3395  0
3396  0
3397  0
3398  0
3399  0
3400  2
3401  1
3402  0
3403  1
3404  0
3405  0
3406  1
3407  0
3408  2
3409  0
3410  1
3411  0
3412  0
3413  0
3414  1
3415  1
3416  0
3417  0
3418  0
3419  0
3420  1
3421  1
3422  0
3423  0
3424  2
3425  0
3426  1
3427  1
3428  2
3429  1
3430  0
3431  0
3432  0
3433  0
3434  1
3435  1
3436  0
3437  1
3438  0
3439  0
3440  1
3441  0
3442  0
3443  0
3444  1
3445  0
3446  0
3447  0
3448  0
3449  0
3450  0
3451  0
3452  1
3453  1
3454  0
3455  0
3456  1
3457  0
3458  0
3459  0
3460  1
3461  0
3462  1
3463  0
3464  0
3465  0
3466  0
3467  0
3468  1
3469  0
3470  1
3471  0
3472  0
3473  0
3474  0
3475  1
3476  0
3477  0
3478  1
3479  0
3480  0
3481  0
3482  0
3483  1
3484  1
3485  1
3486  1
3487  0
3488  1
3489  1
3490  0
3491  0
3492  0
3493  0
3494  0
3495  0
3496  2
3497  0
3498  1
3499  0
3500  1
3501  0
3502  1
3503  1
3504  0
3505  1
3506  0
3507  0
3508  1
3509  0
3510  0
3511  0
3512  0
3513  0
3514  0
3515  0
3516  0
3517  0
3518  1
3519  0
3520  1
3521  0
3522  0
3523  0
3524  1
3525  0
3526  0
3527  0
3528  0
3529  1
3530  1
3531  1
3532  1
3533  2
3534  1
3535  1
3536  0
3537  0
3538  0
3539  0
3540  0
3541  0
3542  1
3543  0
3544  1
3545  0
3546  0
3547  1
3548  0
3549  0
3550  0
3551  0
3552  1
3553  0
3554  1
3555  0
3556  1
3557  0
3558  1
3559  0
3560  1
3561  1
3562  0
3563  0
3564  0
3565  0
3566  0
3567  0
3568  0
3569  1
3570  1
3571  1
3572  3
3573  1
3574  0
3575  0
3576  0
3577  2
3578  2
3579  1
3580  0
3581  0
3582  0
3583  0
3584  0
3585  0
3586  0
3587  0
3588  0
3589  1
3590  2
3591  1
3592  0
3593  0
3594  0
3595  0
3596  2
3597  1
3598  1
3599  0
3600  2
3601  0
3602  0
3603  0
3604  1
3605  1
3606  1
3607  1
3608  1
3609  1
3610  1
3611  0
3612  0
3613  2
3614  1
3615  1
3616  0
3617  2
3618  2
3619  1
3620  0
3621  0
3622  1
3623  1
3624  0
3625  1
3626  0
3627  1
3628  0
3629  2
3630  0
3631  2
3632  0
3633  1
3634  1
3635  0
3636  2
3637  0
3638  1
3639  0
3640  0
3641  0
3642  2
3643  0
3644  0
3645  1
3646  2
3647  0
3648  0
3649  0
3650  0
3651  1
3652  0
3653  0
3654  0
3655  1
3656  0
3657  2
3658  0
3659  0
3660  0
3661  0
3662  0
3663  0
3664  0
3665  1
3666  0
3667  0
3668  1
3669  0
3670  0
3671  0
3672  0
3673  0
3674  0
3675  0
3676  1
3677  1
3678  0
3679  0
3680  0
3681  0
3682  0
3683  1
3684  0
3685  1
3686  1
3687  1
3688  0
3689  1
3690  0
3691  1
3692  1
3693  1
3694  0
3695  0
3696  0
3697  0
3698  0
3699  0
3700  1
3701  0
3702  0
3703  0
3704  0
3705  0
3706  0
3707  0
3708  1
3709  1
3710  0
3711  1
3712  0
3713  0
3714  0
3715  0
3716  2
3717  1
3718  1
3719  1
3720  0
3721  1
3722  0
3723  0
3724  0
3725  1
3726  2
3727  0
3728  0
3729  1
3730  0
3731  0
3732  0
3733  1
3734  0
3735  0
3736  0
3737  0
3738  1
3739  1
3740  0
3741  0
3742  3
3743  0
3744  1
3745  1
3746  1
3747  1
3748  0
3749  0
3750  0
3751  0
3752  0
3753  0
3754  1
3755  0
3756  0
3757  0
3758  1
3759  2
3760  1
3761  1
3762  0
3763  1
3764  0
3765  0
3766  0
3767  1
3768  2
3769  0
3770  0
3771  0
3772  0
3773  1
3774  0
3775  1
3776  0
3777  0
3778  1
3779  0
3780  1
3781  1
3782  1
3783  0
3784  0
3785  1
3786  2
3787  1
3788  0
3789  0
3790  0
3791  2
3792  0
3793  0
3794  1
3795  0
3796  1
3797  0
3798  1
3799  1
3800  0
3801  1
3802  0
3803  0
3804  0
3805  1
3806  0
3807  0
3808  0
3809  0
3810  0
3811  0
3812  1
3813  0
3814  0
3815  0
3816  0
3817  0
3818  0
3819  1
3820  0
3821  0
3822  0
3823  0
3824  1
3825  1
3826  1
3827  2
3828  0
3829  0
3830  0
3831  0
3832  0
3833  0
3834  1
3835  0
3836  0
3837  2
3838  1
3839  0
3840  0
3841  0
3842  0
3843  0
3844  0
3845  1
3846  0
3847  0
3848  2
3849  1
3850  0
3851  1
3852  0
3853  2
3854  0
3855  0
3856  1
3857  1
3858  0
3859  0
3860  0
3861  0
3862  0
3863  0
3864  0
3865  0
3866  0
3867  0
3868  0
3869  1
3870  0
3871  0
3872  0
3873  0
3874  1
3875  1
3876  0
3877  0
3878  1
3879  0
3880  1
3881  0
3882  1
3883  0
3884  0
3885  1
3886  0
3887  0
3888  0
3889  0
3890  0
3891  1
3892  1
3893  0
3894  1
3895  0
3896  0
3897  0
3898  1
3899  1
3900  0
3901  0
3902  0
3903  1
3904  0
3905  0
3906  0
3907  1
3908  0
3909  1
3910  2
3911  0
3912  0
3913  0
3914  1
3915  0
3916  0
3917  0
3918  0
3919  1
3920  1
3921  1
3922  0
3923  0
3924  1
3925  1
3926  0
3927  1
3928  0
3929  0
3930  1
3931  0
3932  0
3933  2
3934  0
3935  0
3936  1
3937  0
3938  0
3939  1
3940  0
3941  1
3942  1
3943  1
3944  2
3945  0
3946  0
3947  0
3948  0
3949  3
3950  0
3951  0
3952  0
3953  0
3954  1
3955  1
3956  0
3957  0
3958  0
3959  0
3960  1
3961  1
3962  0
3963  0
3964  0
3965  0
3966  0
3967  0
3968  0
3969  0
3970  0
3971  2
3972  2
3973  1
3974  0
3975  1
3976  0
3977  0
3978  1
3979  3
3980  0
3981  0
3982  1
3983  1
3984  1
3985  0
3986  0
3987  0
3988  0
3989  1
3990  0
3991  0
3992  0
3993  0
3994  0
3995  0
3996  0
3997  0
3998  0
3999  0
4000  0
4001  0
4002  1
4003  1
4004  2
4005  1
4006  0
4007  0
4008  0
4009  0
4010  1
4011  0
4012  1
4013  1
4014  0
4015  0
4016  0
4017  1
4018  1
4019  2
4020  0
4021  1
4022  3
4023  1
4024  1
4025  1
4026  0
4027  0
4028  0
4029  0
4030  0
4031  0
4032  0
4033  1
4034  5
4035  2
4036  1
4037  0
4038  0
4039  4
4040  1
4041  0
4042  0
4043  1
4044  1
4045  0
4046  1
4047  0
4048  0
4049  1
4050  0
4051  0
4052  1
4053  0
4054  0
4055  1
4056  0
4057  1
4058  1
4059  0
4060  1
4061  0
4062  0
4063  0
4064  1
4065  1
4066  1
4067  0
4068  1
4069  0
4070  1
4071  1
4072  2
4073  2
4074  0
4075  1
4076  0
4077  3
4078  0
4079  0
4080  1
4081  1
4082  0
4083  0
4084  0
4085  0
4086  1
4087  1
4088  1
4089  0
4090  0
4091  0
4092  0
4093  0
4094  0
4095  2
4096  2
4097  2
4098  0
4099  1
4100  0
4101  1
4102  1
4103  1
4104  0
4105  1
4106  0
4107  2
4108  0
4109  0
4110  1
4111  1
4112  1
4113  1
4114  0
4115  1
4116  1
4117  0
4118  1
4119  0
4120  0
4121  0
4122  1
4123  0
4124  0
4125  0
4126  1
4127  0
4128  0
4129  0
4130  1
4131  0
4132  0
4133  1
4134  0
4135  0
4136  0
4137  0
4138  0
4139  0
4140  0
4141  0
4142  0
4143  1
4144  0
4145  0
4146  0
4147  1
4148  1
4149  0
4150  0
4151  1
4152  1
4153  0
4154  1
4155  0
4156  1
4157  0
4158  0
4159  1
4160  0
4161  0
4162  1
4163  0
4164  0
4165  0
4166  1
4167  0
4168  0
4169  0
4170  1
4171  2
4172  1
4173  0
4174  0
4175  0
4176  1
4177  1
4178  0
4179  0
4180  0
4181  0
4182  0
4183  0
4184  1
4185  0
4186  0
4187  1
4188  0
4189  2
4190  0
4191  1
4192  0
4193  2
4194  0
4195  1
4196  1
4197  0
4198  2
4199  1
4200  0
4201  0
4202  0
4203  0
4204  1
4205  0
4206  1
4207  0
4208  0
4209  1
4210  0
4211  0
4212  0
4213  0
4214  0
4215  0
4216  1
4217  1
4218  0
4219  1
4220  0
4221  1
4222  0
4223  0
4224  1
4225  0
4226  1
4227  2
4228  1
4229  0
4230  0
4231  0
4232  0
4233  0
4234  1
4235  0
4236  2
4237  0
4238  0
4239  0
4240  0
4241  1
4242  1
4243  1
4244  0
4245  2
4246  0
4247  0
4248  1
4249  1
4250  0
4251  2
4252  0
4253  0
4254  2
4255  1
4256  0
4257  0
4258  0
4259  0
4260  0
4261  1
4262  1
4263  0
4264  0
4265  2
4266  0
4267  1
4268  1
4269  1
4270  1
4271  1
4272  2
4273  0
4274  0
4275  1
4276  1
4277  0
4278  0
4279  0
4280  0
4281  0
4282  1
4283  2
4284  0
4285  0
4286  0
4287  1
4288  1
4289  0
4290  0
4291  0
4292  0
4293  0
4294  2
4295  0
4296  0
4297  0
4298  0
4299  1
4300  0
4301  0
4302  0
4303  1
4304  0
4305  0
4306  0
4307  0
4308  0
4309  0
4310  0
4311  1
4312  0
4313  0
4314  0
4315  1
4316  0
4317  0
4318  0
4319  0
4320  1
4321  0
4322  0
4323  0
4324  1
4325  1
4326  0
4327  0
4328  1
4329  0
4330  0
4331  0
4332  1
4333  0
4334  1
4335  1
4336  4
4337  0
4338  0
4339  0
4340  0
4341  1
4342  0
4343  0
4344  0
4345  1
4346  0
4347  1
4348  0
4349  0
4350  1
4351  2
4352  2
4353  1
4354  0
4355  1
4356  0
4357  0
4358  1
4359  0
4360  0
4361  0
4362  0
4363  0
4364  0
4365  0
4366  0
4367  0
4368  0
4369  0
4370  0
4371  0
4372  0
4373  0
4374  0
4375  0
4376  0
4377  0
4378  0
4379  1
4380  0
4381  1
4382  0
4383  0
4384  0
4385  0
4386  0
4387  0
4388  1
4389  1
4390  0
4391  1
4392  2
4393  1
4394  0
4395  1
4396  0
4397  0
4398  1
4399  1
4400  1
4401  0
4402  1
4403  0
4404  0
4405  2
4406  0
4407  1
4408  2
4409  0
4410  0
4411  3
4412  0
4413  1
4414  0
4415  1
4416  1
4417  0
4418  1
4419  1
4420  1
4421  0
4422  1
4423  0
4424  0
4425  0
4426  1
4427  1
4428  0
4429  1
4430  0
4431  2
4432  0
4433  0
4434  1
4435  0
4436  0
4437  0
4438  0
4439  0
4440  0
4441  1
4442  0
4443  1
4444  1
4445  2
4446  0
4447  1
4448  0
4449  1
4450  1
4451  1
4452  2
4453  2
4454  0
4455  0
4456  1
4457  0
4458  1
4459  0
4460  1
4461  0
4462  2
4463  0
4464  0
4465  2
4466  2
4467  0
4468  0
4469  0
4470  0
4471  1
4472  1
4473  1
4474  1
4475  1
4476  0
4477  0
4478  1
4479  1
4480  0
4481  0
4482  1
4483  1
4484  1
4485  1
4486  1
4487  0
4488  0
4489  1
4490  0
4491  0
4492  0
4493  0
4494  0
4495  0
4496  0
4497  1
4498  0
4499  0
4500  0
4501  0
4502  2
4503  1
4504  0
4505  0
4506  0
4507  0
4508  0
4509  2
4510  2
4511  0
4512  0
4513  0
4514  0
4515  0
4516  1
4517  0
4518  0
4519  0
4520  0
4521  0
4522  0
4523  0
4524  0
4525  1
4526  0
4527  1
4528  0
4529  1
4530  0
4531  1
4532  1
4533  1
4534  1
4535  0
4536  1
4537  1
4538  0
4539  1
4540  1
4541  1
4542  0
4543  0
4544  2
4545  0
4546  0
4547  2
4548  0
4549  1
4550  0
4551  0
4552  0
4553  1
4554  0
4555  0
4556  0
4557  1
4558  0
4559  2
4560  0
4561  0
4562  0
4563  0
4564  0
4565  0
4566  0
4567  0
4568  1
4569  1
4570  0
4571  1
4572  0
4573  0
4574  0
4575  1
4576  0
4577  1
4578  2
4579  0
4580  1
4581  1
4582  0
4583  0
4584  0
4585  0
4586  0
4587  1
4588  1
4589  0
4590  0
4591  0
4592  0
4593  0
4594  0
4595  0
4596  0
4597  0
4598  0
4599  0
4600  1
4601  1
4602  0
4603  2
4604  0
4605  1
4606  1
4607  0
4608  0
4609  2
4610  1
4611  0
4612  0
4613  0
4614  2
4615  0
4616  0
4617  1
4618  1
4619  1
4620  1
4621  0
4622  1
4623  1
4624  0
4625  1
4626  0
4627  0
4628  0
4629  0
4630  0
4631  0
4632  2
4633  0
4634  0
4635  2
4636  0
4637  0
4638  1
4639  0
4640  0
4641  1
4642  1
4643  0
4644  0
4645  0
4646  0
4647  2
4648  1
4649  1
4650  1
4651  0
4652  1
4653  1
4654  2
4655  1
4656  0
4657  1
4658  1
4659  0
4660  0
4661  1
4662  0
4663  0
4664  0
4665  1
4666  0
4667  0
4668  0
4669  0
4670  0
4671  0
4672  1
4673  0
4674  0
4675  0
4676  0
4677  1
4678  1
4679  1
4680  0
4681  0
4682  0
4683  0
4684  0
4685  0
4686  0
4687  0
4688  1
4689  1
4690  0
4691  0
4692  0
4693  1
4694  1
4695  1
4696  0
4697  0
4698  0
4699  0
4700  2
4701  2
4702  2
4703  1
4704  1
4705  1
4706  1
4707  0
4708  1
4709  1
4710  1
4711  0
4712  1
4713  1
4714  0
4715  1
4716  0
4717  0
4718  2
4719  1
4720  1
4721  1
4722  0
4723  0
4724  2
4725  2
4726  0
4727  0
4728  0
4729  1
4730  0
4731  1
4732  1
4733  1
4734  0
4735  0
4736  0
4737  1
4738  1
4739  1
4740  2
4741  0
4742  0
4743  1
4744  0
4745  0
4746  2
4747  3
4748  3
4749  3
4750  1
4751  1
4752  1
4753  0
4754  1
4755  0
4756  1
4757  2
4758  1
4759  1
4760  2
4761  1
4762  2
4763  1
4764  0
4765  1
4766  5
4767  1
4768  2
4769  2
4770  4
4771  2
4772  3
4773  0
4774  2
4775  2
4776  5
4777  4
4778  8
4779  3
4780  2
4781  2
4782  2
4783  2
4784  1
4785  3
4786  6
4787  3
4788  3
4789  4
4790  5
4791  4
4792  3
4793  5
4794  0
4795  3
4796  2
4797  3
4798  2
4799  2
4800  2
4801  0
4802  2
4803  2
4804  2
4805  3
4806  1
4807  2
4808  3
4809  1
4810  2
4811  0
4812  1
4813  0
4814  0
4815  3
4816  0
4817  1
4818  0
4819  1
4820  1
4821  1
4822  0
4823  0
4824  0
4825  0
4826  3
4827  0
4828  0
4829  0
4830  0
4831  0
4832  1
4833  2
4834  1
4835  1
4836  0
4837  2
4838  0
4839  1
4840  0
4841  0
4842  0
4843  3
4844  0
4845  1
4846  0
4847  0
4848  1
4849  0
4850  1
4851  1
4852  1
4853  1
4854  0
4855  1
4856  2
4857  0
4858  0
4859  1
4860  2
4861  1
4862  0
4863  3
4864  1
4865  3
4866  1
4867  1
4868  1
4869  0
4870  3
4871  1
4872  0
4873  0
4874  1
4875  3
4876  2
4877  2
4878  2
4879  0
4880  2
4881  0
4882  0
4883  0
4884  2
4885  1
4886  2
4887  1
4888  4
4889  3
4890  1
4891  2
4892  0
4893  0
4894  1
4895  0
4896  1
4897  2
4898  1
4899  1
4900  0
4901  1
4902  0
4903  2
4904  2
4905  1
4906  3
4907  3
4908  4
4909  1
4910  2
4911  4
4912  2
4913  3
4914  1
4915  5
4916  2
4917  2
4918  7
4919  5
4920  6
4921  2
4922  8
4923  4
4924  1
4925  4
4926  10
4927  13
4928  11
4929  5
4930  10
4931  9
4932  11
4933  18
4934  22
4935  11
4936  15
4937  18
4938  14
4939  17
4940  20
4941  23
4942  19
4943  22
4944  18
4945  34
4946  22
4947  16
4948  41
4949  39
4950  29
4951  29
4952  37
4953  40
4954  39
4955  33
4956  45
4957  32
4958  40
4959  40
4960  35
4961  32
4962  37
4963  33
4964  33
4965  41
4966  27
4967  35
4968  35
4969  28
4970  34
4971  23
4972  25
4973  20
4974  15
4975  28
4976  25
4977  21
4978  23
4979  14
4980  21
4981  16
4982  17
4983  7
4984  6
4985  9
4986  7
4987  8
4988  11
4989  9
4990  11
4991  10
4992  4
4993  8
4994  5
4995  3
4996  3
4997  4
4998  2
4999  5
5000  3
5001  4
5002  2
5003  2
5004  5
5005  1
5006  2
5007  2
5008  2
5009  2
5010  3
5011  0
5012  0
5013  1
5014  0
5015  0
5016  1
5017  2
5018  1
5019  1
5020  0
5021  0
5022  1
5023  0
5024  1
5025  0
5026  1
5027  1
5028  1
5029  0
5030  1
5031  1
5032  0
5033  0
5034  0
5035  0
5036  0
5037  0
5038  0
5039  0
5040  0
5041  0
5042  0
5043  1
5044  0
5045  1
5046  0
5047  0
5048  0
5049  1
5050  0
5051  1
5052  0
5053  0
5054  1
5055  0
5056  2
5057  0
5058  0
5059  0
5060  0
5061  1
5062  0
5063  0
5064  0
5065  0
5066  0
5067  0
5068  1
5069  1
5070  0
5071  0
5072  0
5073  0
5074  0
5075  0
5076  0
5077  0
5078  0
5079  1
5080  0
5081  1
5082  0
5083  0
5084  0
5085  0
5086  1
5087  0
5088  0
5089  1
5090  0
5091  0
5092  0
5093  0
5094  1
5095  0
5096  0
5097  0
5098  0
5099  1
5100  2
5101  0
5102  0
5103  0
5104  0
5105  0
5106  0
5107  0
5108  0
5109  0
5110  0
5111  0
5112  0
5113  0
5114  1
5115  1
5116  1
5117  0
5118  1
5119  1
5120  0
5121  1
5122  1
5123  0
5124  1
5125  0
5126  0
5127  0
5128  1
5129  0
5130  0
5131  0
5132  0
5133  0
5134  0
5135  0
5136  0
5137  1
5138  2
5139  0
5140  1
5141  0
5142  0
5143  0
5144  0
5145  0
5146  0
5147  0
5148  0
5149  1
5150  2
5151  0
5152  1
5153  1
5154  0
5155  0
5156  0
5157  1
5158  1
5159  0
5160  1
5161  0
5162  0
5163  0
5164  2
5165  0
5166  1
5167  0
5168  1
5169  0
5170  1
5171  0
5172  0
5173  0
5174  0
5175  1
5176  1
5177  1
5178  0
5179  0
5180  1
5181  0
5182  0
5183  0
5184  0
5185  0
5186  0
5187  0
5188  0
5189  0
5190  0
5191  0
5192  0
5193  1
5194  0
5195  0
5196  0
5197  0
5198  0
5199  0
5200  1
5201  1
5202  1
5203  0
5204  0
5205  1
5206  1
5207  0
5208  0
5209  0
5210  1
5211  0
5212  0
5213  0
5214  0
5215  0
5216  1
5217  0
5218  0
5219  0
5220  1
5221  0
5222  1
5223  1
5224  0
5225  0
5226  0
5227  1
5228  1
5229  0
5230  0
5231  0
5232  0
5233  0
5234  0
5235  0
5236  0
5237  1
5238  0
5239  1
5240  0
5241  0
5242  0
5243  1
5244  0
5245  1
5246  0
5247  0
5248  1
5249  1
5250  0
5251  1
5252  0
5253  0
5254  0
5255  0
5256  0
5257  0
5258  1
5259  0
5260  0
5261  0
5262  1
5263  0
5264  1
5265  1
5266  0
5267  1
5268  0
5269  1
5270  0
5271  1
5272  0
5273  2
5274  1
5275  2
5276  2
5277  0
5278  1
5279  0
5280  0
5281  0
5282  2
5283  0
5284  0
5285  1
5286  0
5287  0
5288  1
5289  0
5290  0
5291  0
5292  1
5293  0
5294  0
5295  0
5296  0
5297  0
5298  1
5299  0
5300  1
5301  1
5302  0
5303  0
5304  1
5305  1
5306  0
5307  0
5308  1
5309  1
5310  0
5311  0
5312  0
5313  0
5314  2
5315  3
5316  1
5317  1
5318  0
5319  2
5320  0
5321  0
5322  0
5323  0
5324  0
5325  0
5326  0
5327  0
5328  0
5329  0
5330  3
5331  0
5332  3
5333  0
5334  0
5335  0
5336  0
5337  1
5338  0
5339  0
5340  0
5341  0
5342  0
5343  1
5344  1
5345  0
5346  0
5347  1
5348  0
5349  1
5350  2
5351  0
5352  1
5353  0
5354  1
5355  0
5356  1
5357  1
5358  0
5359  1
5360  0
5361  0
5362  0
5363  0
5364  0
5365  0
5366  0
5367  0
5368  1
5369  1
5370  1
5371  1
5372  1
5373  1
5374  0
5375  0
5376  0
5377  0
5378  1
5379  0
5380  0
5381  1
5382  0
5383  1
5384  0
5385  1
5386  2
5387  0
5388  3
5389  0
5390  1
5391  3
5392  1
5393  4
5394  2
5395  2
5396  1
5397  2
5398  0
5399  0
5400  2
5401  1
5402  1
5403  4
5404  3
5405  0
5406  2
5407  1
5408  2
5409  4
5410  3
5411  4
5412  3
5413  3
5414  3
5415  2
5416  4
5417  4
5418  4
5419  5
5420  2
5421  4
5422  4
5423  4
5424  5
5425  3
5426  7
5427  6
5428  2
5429  3
5430  5
5431  4
5432  2
5433  7
5434  7
5435  6
5436  5
5437  9
5438  9
5439  5
5440  4
5441  7
5442  3
5443  16
5444  13
5445  10
5446  9
5447  8
5448  3
5449  5
5450  7
5451  8
5452  11
5453  5
5454  14
5455  6
5456  8
5457  12
5458  12
5459  12
5460  6
5461  9
5462  4
5463  6
5464  6
5465  7
5466  4
5467  8
5468  7
5469  5
5470  15
5471  4
5472  4
5473  7
5474  6
5475  2
5476  5
5477  2
5478  7
5479  5
5480  5
5481  6
5482  2
5483  3
5484  3
5485  1
5486  2
5487  1
5488  1
5489  3
5490  2
5491  1
5492  1
5493  1
5494  0
5495  2
5496  0
5497  1
5498  1
5499  0
5500  2
5501  1
5502  1
5503  2
5504  1
5505  1
5506  1
5507  0
5508  0
5509  4
5510  0
5511  0
5512  0
5513  2
5514  1
5515  0
5516  0
5517  0
5518  1
5519  2
5520  0
5521  0
5522  0
5523  1
5524  0
5525  1
5526  0
5527  1
5528  2
5529  0
5530  0
5531  1
5532  2
5533  1
5534  1
5535  1
5536  0
5537  1
5538  0
5539  2
5540  2
5541  1
5542  0
5543  2
5544  3
5545  1
5546  0
5547  1
5548  0
5549  1
5550  3
5551  0
5552  2
5553  1
5554  0
5555  0
5556  1
5557  1
5558  1
5559  1
5560  2
5561  3
5562  2
5563  0
5564  0
5565  0
5566  0
5567  0
5568  2
5569  3
5570  0
5571  2
5572  0
5573  3
5574  1
5575  2
5576  1
5577  4
5578  0
5579  1
5580  6
5581  1
5582  4
5583  3
5584  3
5585  3
5586  4
5587  2
5588  3
5589  3
5590  10
5591  7
5592  7
5593  7
5594  9
5595  8
5596  9
5597  14
5598  14
5599  7
5600  19
5601  15
5602  9
5603  23
5604  15
5605  16
5606  16
5607  17
5608  14
5609  21
5610  18
5611  24
5612  12
5613  23
5614  22
5615  25
5616  28
5617  32
5618  36
5619  29
5620  29
5621  36
5622  34
5623  17
5624  34
5625  41
5626  36
5627  43
5628  49
5629  28
5630  38
5631  40
5632  28
5633  33
5634  34
5635  35
5636  24
5637  35
5638  31
5639  22
5640  26
5641  30
5642  27
5643  31
5644  19
5645  17
5646  19
5647  25
5648  22
5649  19
5650  19
5651  17
5652  17
5653  5
5654  11
5655  15
5656  12
5657  7
5658  8
5659  3
5660  5
5661  1
5662  8
5663  5
5664  3
5665  6
5666  5
5667  4
5668  3
5669  4
5670  5
5671  3
5672  3
5673  1
5674  0
5675  2
5676  1
5677  2
5678  2
5679  1
5680  1
5681  1
5682  0
5683  1
5684  0
5685  0
5686  0
5687  0
5688  3
5689  0
5690  0
5691  2
5692  0
5693  0
5694  0
5695  1
5696  0
5697  0
5698  3
5699  1
5700  0
5701  0
5702  0
5703  3
5704  0
5705  0
5706  0
5707  1
5708  1
5709  0
5710  0
5711  0
5712  0
5713  0
5714  0
5715  0
5716  0
5717  0
5718  0
5719  0
5720  1
5721  1
5722  0
5723  1
5724  0
5725  0
5726  0
5727  0
5728  0
5729  0
5730  0
5731  1
5732  0
5733  0
5734  0
5735  1
5736  0
5737  0
5738  0
5739  1
5740  0
5741  0
5742  0
5743  0
5744  0
5745  0
5746  0
5747  0
5748  0
5749  0
5750  0
5751  1
5752  0
5753  0
5754  0
5755  0
5756  0
5757  0
5758  0
5759  0
5760  0
5761  0
5762  0
5763  0
5764  0
5765  0
5766  0
5767  0
5768  0
5769  0
5770  1
5771  0
5772  1
5773  0
5774  0
5775  0
5776  0
5777  0
5778  0
5779  0
5780  0
5781  0
5782  0
5783  0
5784  0
5785  0
5786  0
5787  0
5788  0
5789  0
5790  0
5791  0
5792  1
5793  1
5794  0
5795  0
5796  0
5797  0
5798  0
5799  0
5800  1
5801  0
5802  0
5803  0
5804  2
5805  0
5806  0
5807  0
5808  0
5809  0
5810  0
5811  1
5812  0
5813  0
5814  0
5815  2
5816  1
5817  0
5818  0
5819  0
5820  0
5821  0
5822  0
5823  0
5824  1
5825  1
5826  0
5827  1
5828  1
5829  0
5830  0
5831  1
5832  0
5833  1
5834  0
5835  0
5836  0
5837  0
5838  0
5839  0
5840  0
5841  0
5842  0
5843  1
5844  0
5845  0
5846  0
5847  0
5848  0
5849  1
5850  0
5851  2
5852  0
5853  0
5854  0
5855  0
5856  1
5857  0
5858  0
5859  0
5860  0
5861  0
5862  0
5863  0
5864  0
5865  0
5866  0
5867  1
5868  1
5869  0
5870  0
5871  1
5872  0
5873  1
5874  1
5875  0
5876  0
5877  0
5878  1
5879  0
5880  1
5881  1
5882  1
5883  1
5884  0
5885  1
5886  0
5887  0
5888  0
5889  0
5890  0
5891  1
5892  1
5893  1
5894  1
5895  0
5896  1
5897  0
5898  0
5899  0
5900  0
5901  0
5902  0
5903  3
5904  0
5905  0
5906  0
5907  0
5908  0
5909  1
5910  2
5911  0
5912  0
5913  0
5914  0
5915  0
5916  1
5917  0
5918  0
5919  0
5920  1
5921  0
5922  0
5923  1
5924  0
5925  1
5926  1
5927  0
5928  0
5929  1
5930  0
5931  0
5932  0
5933  0
5934  0
5935  0
5936  0
5937  1
5938  0
5939  1
5940  0
5941  0
5942  0
5943  0
5944  0
5945  0
5946  1
5947  0
5948  0
5949  0
5950  0
5951  0
5952  0
5953  1
5954  1
5955  0
5956  1
5957  0
5958  1
5959  0
5960  2
5961  0
5962  2
5963  0
5964  0
5965  0
5966  0
5967  0
5968  1
5969  1
5970  0
5971  0
5972  0
5973  0
5974  2
5975  0
5976  2
5977  0
5978  0
5979  0
5980  0
5981  0
5982  0
5983  0
5984  0
5985  2
5986  1
5987  0
5988  0
5989  0
5990  0
5991  0
5992  2
5993  1
5994  2
5995  0
5996  0
5997  0
5998  1
5999  0
6000  2
6001  1
6002  0
6003  1
6004  0
6005  1
6006  1
6007  1
6008  2
6009  0
6010  1
6011  1
6012  0
6013  1
6014  1
6015  1
6016  2
6017  2
6018  0
6019  0
6020  0
6021  1
6022  0
6023  3
6024  4
6025  0
6026  1
6027  0
6028  2
6029  1
6030  1
6031  0
6032  0
6033  1
6034  0
6035  1
6036  2
6037  0
6038  1
6039  1
6040  3
6041  3
6042  2
6043  1
6044  2
6045  0
6046  2
6047  2
6048  2
6049  4
6050  0
6051  1
6052  0
6053  3
6054  2
6055  2
6056  2
6057  2
6058  0
6059  4
6060  2
6061  5
6062  3
6063  1
6064  0
6065  1
6066  5
6067  1
6068  6
6069  7
6070  4
6071  2
6072  9
6073  6
6074  6
6075  7
6076  6
6077  3
6078  10
6079  3
6080  8
6081  4
6082  11
6083  16
6084  9
6085  11
6086  12
6087  20
6088  12
6089  26
6090  15
6091  13
6092  19
6093  18
6094  19
6095  23
6096  19
6097  27
6098  24
6099  28
6100  28
6101  22
6102  31
6103  28
6104  26
6105  43
6106  35
6107  29
6108  39
6109  40
6110  47
6111  35
6112  27
6113  38
6114  32
6115  33
6116  30
6117  28
6118  31
6119  38
6120  32
6121  37
6122  34
6123  39
6124  20
6125  26
6126  26
6127  23
6128  20
6129  30
6130  26
6131  21
6132  22
6133  20
6134  10
6135  26
6136  11
6137  9
6138  11
6139  18
6140  14
6141  7
6142  6
6143  7
6144  10
6145  5
6146  8
6147  6
6148  5
6149  1
6150  4
6151  3
6152  4
6153  2
6154  5
6155  5
6156  5
6157  4
6158  0
6159  0
6160  1
6161  1
6162  3
6163  1
6164  0
6165  1
6166  0
6167  1
6168  0
6169  1
6170  0
6171  0
6172  1
6173  1
6174  0
6175  0
6176  0
6177  0
6178  0
6179  1
6180  0
6181  0
6182  0
6183  2
6184  0
6185  1
6186  1
6187  0
6188  0
6189  0
6190  1
6191  0
6192  0
6193  0
6194  0
6195  0
6196  0
6197  0
6198  0
6199  0
6200  0
6201  0
6202  0
6203  0
6204  0
6205  0
6206  0
6207  0
6208  0
6209  0
6210  0
6211  0
6212  0
6213  0
6214  0
6215  0
6216  0
6217  0
6218  0
6219  0
6220  0
6221  0
6222  1
6223  0
6224  0
6225  0
6226  0
6227  0
6228  0
6229  0
6230  0
6231  0
6232  0
6233  0
6234  1
6235  0
6236  0
6237  0
6238  0
6239  0
6240  0
6241  1
6242  1
6243  0
6244  0
6245  0
6246  0
6247  0
6248  0
6249  0
6250  0
6251  0
6252  0
6253  0
6254  0
6255  0
6256  0
6257  0
6258  0
6259  0
6260  0
6261  0
6262  0
6263  1
6264  0
6265  0
6266  0
6267  0
6268  0
6269  0
6270  0
6271  0
6272  0
6273  0
6274  0
6275  0
6276  0
6277  0
6278  0
6279  0
6280  0
6281  0
6282  1
6283  0
6284  0
6285  0
6286  0
6287  0
6288  0
6289  0
6290  0
6291  0
6292  0
6293  0
6294  0
6295  1
6296  0
6297  0
6298  0
6299  0
6300  0
6301  0
6302  0
6303  0
6304  0
6305  0
6306  0
6307  0
6308  0
6309  0
6310  0
6311  0
6312  0
6313  0
6314  0
6315  0
6316  0
6317  0
6318  0
6319  0
6320  0
6321  0
6322  0
6323  0
6324  0
6325  0
6326  0
6327  0
6328  0
6329  0
6330  0
6331  0
6332  1
6333  0
6334  0
6335  0
6336  0
6337  0
6338  0
6339  0
6340  0
6341  1
6342  0
6343  0
6344  0
6345  0
6346  0
6347  0
6348  0
6349  0
6350  0
6351  0
6352  0
6353  0
6354  0
6355  0
6356  0
6357  0
6358  0
6359  0
6360  0
6361  0
6362  0
6363  0
6364  0
6365  1
6366  0
6367  0
6368  0
6369  0
6370  0
6371  0
6372  0
6373  0
6374  0
6375  0
6376  0
6377  0
6378  0
6379  0
6380  0
6381  0
6382  0
6383  1
6384  0
6385  0
6386  0
6387  0
6388  0
6389  0
6390  0
6391  0
6392  0
6393  0
6394  0
6395  0
6396  1
6397  0
6398  0
6399  0
6400  0
6401  1
6402  0
6403  0
6404  0
6405  0
6406  0
6407  0
6408  0
6409  0
6410  0
6411  0
6412  0
6413  0
6414  0
6415  0
6416  0
6417  0
6418  0
6419  0
6420  0
6421  0
6422  0
6423  0
6424  0
6425  0
6426  0
6427  0
6428  0
6429  0
6430  0
6431  0
6432  0
6433  0
6434  0
6435  0
6436  0
6437  0
6438  1
6439  1
6440  0
6441  0
6442  0
6443  0
6444  0
6445  0
6446  0
6447  0
6448  0
6449  0
6450  0
6451  0
6452  0
6453  1
6454  1
6455  0
6456  0
6457  0
6458  0
6459  0
6460  0
6461  0
6462  0
6463  0
6464  0
6465  0
6466  0
6467  0
6468  0
6469  0
6470  0
6471  0
6472  0
6473  0
6474  0
6475  0
6476  1
6477  0
6478  0
6479  0
6480  0
6481  0
6482  0
6483  0
6484  0
6485  0
6486  0
6487  0
6488  0
6489  0
6490  0
6491  1
6492  0
6493  0
6494  0
6495  0
6496  0
6497  0
6498  0
6499  0
6500  0
6501  0
6502  0
6503  0
6504  0
6505  0
6506  0
6507  0
6508  0
6509  0
6510  0
6511  0
6512  0
6513  0
6514  0
6515  0
6516  1
6517  0
6518  0
6519  0
6520  0
6521  0
6522  0
6523  0
6524  0
6525  1
6526  0
6527  0
6528  0
6529  0
6530  0
6531  0
6532  0
6533  0
6534  1
6535  0
6536  0
6537  0
6538  0
6539  0
6540  0
6541  0
6542  0
6543  0
6544  0
6545  0
6546  0
6547  0
6548  0
6549  0
6550  0
6551  0
6552  0
6553  0
6554  0
6555  0
6556  0
6557  0
6558  0
6559  0
6560  0
6561  0
6562  0
6563  0
6564  0
6565  0
6566  0
6567  0
6568  0
6569  0
6570  0
6571  0
6572  0
6573  0
6574  0
6575  0
6576  0
6577  0
6578  0
6579  0
6580  1
6581  0
6582  0
6583  0
6584  0
6585  1
6586  0
6587  0
6588  0
6589  1
6590  0
6591  0
6592  0
6593  0
6594  0
6595  0
6596  0
6597  0
6598  0
6599  0
6600  0
6601  0
6602  0
6603  0
6604  0
6605  0
6606  0
6607  0
6608  1
6609  0
6610  0
6611  0
6612  0
6613  0
6614  0
6615  0
6616  0
6617  0
6618  0
6619  0
6620  1
6621  0
6622  0
6623  0
6624  0
6625  0
6626  0
6627  0
6628  0
6629  0
6630  0
6631  0
6632  1
6633  0
6634  0
6635  0
6636  0
6637  0
6638  0
6639  0
6640  0
6641  0
6642  0
6643  0
6644  0
6645  0
6646  0
6647  0
6648  0
6649  0
6650  0
6651  1
6652  0
6653  0
6654  0
6655  0
6656  0
6657  2
6658  1
6659  0
6660  0
6661  0
6662  0
6663  0
6664  0
6665  0
6666  0
6667  0
6668  0
6669  0
6670  0
6671  0
6672  0
6673  0
6674  1
6675  0
6676  0
6677  1
6678  0
6679  0
6680  0
6681  0
6682  0
6683  0
6684  0
6685  0
6686  0
6687  0
6688  0
6689  0
6690  0
6691  0
6692  0
6693  0
6694  0
6695  0
6696  0
6697  0
6698  0
6699  0
6700  0
6701  0
6702  0
6703  0
6704  0
6705  0
6706  0
6707  0
6708  0
6709  0
6710  0
6711  0
6712  0
6713  0
6714  0
6715  0
6716  0
6717  0
6718  0
6719  0
6720  0
6721  0
6722  0
6723  0
6724  0
6725  0
6726  0
6727  0
6728  0
6729  0
6730  0
6731  0
6732  0
6733  0
6734  0
6735  0
6736  0
6737  0
6738  0
6739  0
6740  0
6741  0
6742  0
6743  0
6744  0
6745  0
6746  0
6747  0
6748  1
6749  0
6750  0
6751  0
6752  0
6753  0
6754  0
6755  0
6756  1
6757  0
6758  0
6759  0
6760  0
6761  0
6762  0
6763  0
6764  0
6765  0
6766  0
6767  0
6768  0
6769  0
6770  0
6771  0
6772  0
6773  0
6774  0
6775  0
6776  0
6777  0
6778  0
6779  1
6780  0
6781  0
6782  0
6783  0
6784  0
6785  0
6786  0
6787  0
6788  0
6789  0
6790  0
6791  0
6792  0
6793  0
6794  0
6795  0
6796  0
6797  0
6798  0
6799  0
6800  0
6801  0
6802  0
6803  0
6804  0
6805  0
6806  0
6807  0
6808  0
6809  0
6810  0
6811  0
6812  0
6813  0
6814  0
6815  0
6816  0
6817  0
6818  0
6819  0
6820  0
6821  0
6822  0
6823  0
6824  0
6825  0
6826  1
6827  0
6828  0
6829  1
6830  0
6831  0
6832  0
6833  0
6834  0
6835  0
6836  0
6837  0
6838  0
6839  0
6840  0
6841  0
6842  0
6843  0
6844  1
6845  0
6846  0
6847  0
6848  0
6849  0
6850  0
6851  0
6852  0
6853  0
6854  2
6855  0
6856  0
6857  0
6858  1
6859  0
6860  0
6861  0
6862  0
6863  0
6864  0
6865  1
6866  0
6867  0
6868  0
6869  0
6870  0
6871  0
6872  0
6873  1
6874  0
6875  0
6876  0
6877  0
6878  0
6879  0
6880  0
6881  0
6882  0
6883  0
6884  0
6885  0
6886  0
6887  0
6888  0
6889  0
6890  0
6891  0
6892  1
6893  0
6894  0
6895  0
6896  0
6897  0
6898  0
6899  0
6900  0
6901  0
6902  0
6903  0
6904  0
6905  0
6906  0
6907  0
6908  0
6909  0
6910  1
6911  0
6912  0
6913  0
6914  0
6915  0
6916  0
6917  0
6918  0
6919  0
6920  0
6921  0
6922  0
6923  0
6924  0
6925  0
6926  0
6927  0
6928  0
6929  0
6930  0
6931  0
6932  0
6933  0
6934  0
6935  0
6936  0
6937  0
6938  0
6939  0
6940  0
6941  0
6942  1
6943  0
6944  0
6945  0
6946  0
6947  0
6948  0
6949  0
6950  0
6951  0
6952  0
6953  0
6954  0
6955  0
6956  0
6957  0
6958  1
6959  0
6960  0
6961  0
6962  0
6963  0
6964  1
6965  0
6966  0
6967  0
6968  0
6969  0
6970  0
6971  0
6972  0
6973  0
6974  0
6975  0
6976  0
6977  0
6978  1
6979  0
6980  0
6981  1
6982  0
6983  0
6984  0
6985  0
6986  0
6987  0
6988  0
6989  0
6990  0
6991  0
6992  0
6993  0
6994  0
6995  0
6996  0
6997  0
6998  0
6999  0
7000  0
7001  0
7002  0
7003  0
7004  0
7005  0
7006  0
7007  0
7008  0
7009  1
7010  0
7011  0
7012  0
7013  0
7014  0
7015  0
7016  0
7017  0
7018  0
7019  0
7020  0
7021  0
7022  0
7023  0
7024  0
7025  0
7026  0
7027  0
7028  0
7029  0
7030  0
7031  0
7032  0
7033  0
7034  0
7035  0
7036  0
7037  0
7038  0
7039  0
7040  0
7041  0
7042  0
7043  0
7044  0
7045  0
7046  0
7047  0
7048  1
7049  0
7050  0
7051  0
7052  0
7053  0
7054  0
7055  0
7056  0
7057  0
7058  0
7059  0
7060  0
7061  0
7062  0
7063  0
7064  0
7065  0
7066  0
7067  0
7068  0
7069  0
7070  0
7071  0
7072  0
7073  2
7074  0
7075  0
7076  0
7077  0
7078  0
7079  0
7080  0
7081  0
7082  1
7083  0
7084  0
7085  1
7086  0
7087  1
7088  0
7089  0
7090  0
7091  0
7092  0
7093  0
7094  0
7095  0
7096  0
7097  0
7098  0
7099  0
7100  0
7101  0
7102  0
7103  1
7104  0
7105  0
7106  0
7107  0
7108  0
7109  0
7110  0
7111  2
7112  0
7113  0
7114  0
7115  0
7116  0
7117  0
7118  0
7119  0
7120  0
7121  1
7122  0
7123  0
7124  0
7125  0
7126  0
7127  0
7128  0
7129  0
7130  0
7131  0
7132  0
7133  0
7134  0
7135  1
7136  0
7137  0
7138  1
7139  0
7140  0
7141  0
7142  0
7143  1
7144  1
7145  0
7146  0
7147  0
7148  0
7149  0
7150  0
7151  1
7152  0
7153  0
7154  0
7155  0
7156  0
7157  0
7158  0
7159  0
7160  0
7161  0
7162  0
7163  0
7164  0
7165  0
7166  0
7167  0
7168  1
7169  1
7170  0
7171  0
7172  1
7173  0
7174  0
7175  0
7176  0
7177  0
7178  2
7179  0
7180  0
7181  0
7182  0
7183  0
7184  0
7185  0
7186  0
7187  0
7188  0
7189  0
7190  0
7191  0
7192  0
7193  0
7194  0
7195  0
7196  0
7197  0
7198  0
7199  0
7200  0
7201  0
7202  0
7203  0
7204  0
7205  0
7206  1
7207  0
7208  0
7209  0
7210  0
7211  0
7212  0
7213  0
7214  0
7215  0
7216  0
7217  0
7218  0
7219  0
7220  0
7221  0
7222  0
7223  0
7224  0
7225  0
7226  0
7227  0
7228  0
7229  0
7230  0
7231  0
7232  0
7233  0
7234  0
7235  0
7236  0
7237  0
7238  0
7239  0
7240  1
7241  0
7242  0
7243  0
7244  0
7245  0
7246  0
7247  0
7248  0
7249  0
7250  1
7251  0
7252  1
7253  0
7254  0
7255  0
7256  0
7257  0
7258  0
7259  0
7260  0
7261  0
7262  0
7263  0
7264  0
7265  0
7266  0
7267  0
7268  0
7269  0
7270  0
7271  0
7272  1
7273  1
7274  0
7275  1
7276  0
7277  0
7278  0
7279  0
7280  0
7281  0
7282  0
7283  0
7284  0
7285  1
7286  0
7287  0
7288  0
7289  0
7290  0
7291  0
7292  0
7293  0
7294  0
7295  0
7296  0
7297  0
7298  0
7299  0
7300  0
7301  1
7302  0
7303  0
7304  0
7305  1
7306  0
7307  0
7308  0
7309  0
7310  0
7311  0
7312  0
7313  0
7314  0
7315  0
7316  0
7317  0
7318  0
7319  0
7320  0
7321  0
7322  0
7323  0
7324  0
7325  0
7326  0
7327  0
7328  0
7329  0
7330  0
7331  0
7332  0
7333  0
7334  0
7335  0
7336  0
7337  0
7338  0
7339  0
7340  1
7341  1
7342  0
7343  0
7344  1
7345  0
7346  0
7347  0
7348  0
7349  0
7350  0
7351  0
7352  0
7353  0
7354  0
7355  0
7356  1
7357  0
7358  1
7359  1
7360  0
7361  0
7362  0
7363  0
7364  0
7365  0
7366  0
7367  1
7368  0
7369  0
7370  0
7371  0
7372  0
7373  0
7374  0
7375  0
7376  1
7377  0
7378  1
7379  0
7380  0
7381  0
7382  0
7383  0
7384  0
7385  0
7386  0
7387  0
7388  0
7389  0
7390  0
7391  1
7392  0
7393  1
7394  2
7395  0
7396  0
7397  0
7398  1
7399  2
7400  0
7401  1
7402  0
7403  1
7404  0
7405  0
7406  1
7407  0
7408  1
7409  0
7410  0
7411  0
7412  1
7413  0
7414  0
7415  0
7416  0
7417  0
7418  0
7419  1
7420  0
7421  1
7422  0
7423  0
7424  1
7425  0
7426  0
7427  1
7428  1
7429  0
7430  1
7431  0
7432  0
7433  0
7434  1
7435  1
7436  0
7437  0
7438  1
7439  0
7440  0
7441  0
7442  0
7443  0
7444  0
7445  2
7446  0
7447  0
7448  1
7449  0
7450  0
7451  0
7452  0
7453  0
7454  0
7455  0
7456  0
7457  1
7458  0
7459  1
7460  0
7461  0
7462  0
7463  0
7464  0
7465  0
7466  0
7467  0
7468  0
7469  1
7470  0
7471  1
7472  0
7473  0
7474  0
7475  0
7476  0
7477  0
7478  0
7479  0
7480  0
7481  1
7482  0
7483  0
7484  0
7485  0
7486  1
7487  0
7488  0
7489  1
7490  1
7491  0
7492  0
7493  0
7494  1
7495  1
7496  0
7497  0
7498  0
7499  0
7500  0
7501  0
7502  0
7503  0
7504  0
7505  0
7506  0
7507  0
7508  0
7509  0
7510  0
7511  2
7512  0
7513  0
7514  1
7515  0
7516  0
7517  0
7518  0
7519  0
7520  0
7521  0
7522  0
7523  2
7524  0
7525  0
7526  0
7527  0
7528  0
7529  0
7530  0
7531  1
7532  0
7533  0
7534  0
7535  0
7536  0
7537  0
7538  0
7539  0
7540  0
7541  0
7542  1
7543  0
7544  0
7545  0
7546  1
7547  0
7548  0
7549  1
7550  1
7551  0
7552  0
7553  0
7554  0
7555  0
7556  0
7557  0
7558  1
7559  0
7560  0
7561  0
7562  0
7563  0
7564  1
7565  1
7566  0
7567  0
7568  1
7569  0
7570  2
7571  0
7572  0
7573  1
7574  0
7575  0
7576  0
7577  0
7578  0
7579  0
7580  2
7581  0
7582  0
7583  0
7584  2
7585  0
7586  1
7587  1
7588  1
7589  0
7590  1
7591  0
7592  1
7593  0
7594  0
7595  0
7596  0
7597  0
7598  0
7599  0
7600  1
7601  0
7602  1
7603  1
7604  0
7605  1
7606  0
7607  0
7608  3
7609  0
7610  0
7611  0
7612  0
7613  0
7614  0
7615  0
7616  0
7617  1
7618  0
7619  0
7620  0
7621  1
7622  0
7623  0
7624  1
7625  0
7626  2
7627  0
7628  0
7629  1
7630  0
7631  1
7632  3
7633  0
7634  1
7635  1
7636  0
7637  2
7638  3
7639  2
7640  0
7641  0
7642  1
7643  1
7644  1
7645  0
7646  2
7647  0
7648  3
7649  2
7650  2
7651  4
7652  2
7653  2
7654  2
7655  1
7656  4
7657  5
7658  1
7659  3
7660  4
7661  6
7662  4
7663  3
7664  2
7665  6
7666  5
7667  4
7668  9
7669  7
7670  10
7671  7
7672  5
7673  11
7674  2
7675  11
7676  13
7677  8
7678  9
7679  15
7680  11
7681  16
7682  11
7683  12
7684  10
7685  20
7686  21
7687  21
7688  21
7689  17
7690  26
7691  15
7692  26
7693  20
7694  34
7695  29
7696  32
7697  30
7698  26
7699  33
7700  29
7701  30
7702  34
7703  26
7704  40
7705  37
7706  34
7707  31
7708  34
7709  31
7710  40
7711  28
7712  34
7713  29
7714  25
7715  25
7716  31
7717  28
7718  43
7719  21
7720  19
7721  21
7722  21
7723  19
7724  25
7725  19
7726  18
7727  11
7728  16
7729  12
7730  10
7731  9
7732  5
7733  9
7734  14
7735  8
7736  7
7737  5
7738  4
7739  2
7740  3
7741  3
7742  4
7743  2
7744  3
7745  4
7746  2
7747  3
7748  2
7749  3
7750  2
7751  2
7752  1
7753  3
7754  2
7755  0
7756  1
7757  1
7758  0
7759  0
7760  0
7761  1
7762  0
7763  0
7764  0
7765  0
7766  0
7767  0
7768  1
7769  0
7770  0
7771  0
7772  0
7773  1
7774  0
7775  0
7776  0
7777  2
7778  1
7779  0
7780  0
7781  0
7782  0
7783  1
7784  1
7785  0
7786  0
7787  0
7788  0
7789  0
7790  0
7791  0
7792  0
7793  0
7794  0
7795  0
7796  0
7797  1
7798  0
7799  0
7800  0
7801  0
7802  0
7803  0
7804  0
7805  0
7806  0
7807  0
7808  0
7809  0
7810  0
7811  0
7812  0
7813  0
7814  0
7815  0
7816  0
7817  0
7818  0
7819  0
7820  0
7821  0
7822  0
7823  0
7824  0
7825  0
7826  0
7827  0
7828  0
7829  0
7830  0
7831  0
7832  0
7833  0
7834  0
7835  0
7836  0
7837  0
7838  0
7839  0
7840  0
7841  0
7842  1
7843  0
7844  0
7845  0
7846  0
7847  0
7848  0
7849  0
7850  0
7851  0
7852  0
7853  0
7854  0
7855  0
7856  0
7857  0
7858  0
7859  0
7860  0
7861  0
7862  0
7863  0
7864  0
7865  0
7866  0
7867  0
7868  0
7869  0
7870  0
7871  0
7872  0
7873  0
7874  0
7875  0
7876  0
7877  0
7878  0
7879  0
7880  0
7881  0
7882  0
7883  0
7884  0
7885  0
7886  0
7887  0
7888  0
7889  0
7890  0
7891  0
7892  0
7893  0
7894  0
7895  0
7896  0
7897  0
7898  0
7899  0
7900  0
7901  0
7902  0
7903  0
7904  0
7905  0
7906  0
7907  0
7908  0
7909  0
7910  0
7911  0
7912  0
7913  0
7914  0
7915  0
7916  0
7917  0
7918  0
7919  0
7920  0
7921  0
7922  0
7923  0
7924  0
7925  0
7926  0
7927  0
7928  0
7929  0
7930  0
7931  0
7932  0
7933  0
7934  0
7935  0
7936  0
7937  0
7938  0
7939  0
7940  0
7941  0
7942  0
7943  0
7944  0
7945  0
7946  0
7947  0
7948  0
7949  0
7950  0
7951  0
7952  0
7953  0
7954  0
7955  0
7956  0
7957  0
7958  0
7959  0
7960  0
7961  0
7962  0
7963  0
7964  0
7965  0
7966  0
7967  0
7968  0
7969  0
7970  0
7971  0
7972  0
7973  0
7974  0
7975  0
7976  0
7977  0
7978  0
7979  0
7980  0
7981  0
7982  0
7983  0
7984  0
7985  0
7986  0
7987  0
7988  0
7989  0
7990  0
7991  0
7992  0
7993  0
7994  0
7995  0
7996  0
7997  0
7998  0
7999  0
8000  0
8001  0
8002  0
8003  0
8004  0
8005  0
8006  0
8007  0
8008  0
8009  0
8010  0
8011  0
8012  0
8013  0
8014  0
8015  0
8016  0
8017  0
8018  0
8019  0
8020  0
8021  0
8022  0
8023  0
8024  0
8025  0
8026  0
8027  0
8028  0
8029  0
8030  0
8031  0
8032  0
8033  0
8034  0
8035  0
8036  0
8037  0
8038  0
8039  0
8040  0
8041  0
8042  0
8043  0
8044  0
8045  0
8046  0
8047  0
8048  0
8049  0
8050  0
8051  0
8052  0
8053  0
8054  0
8055  0
8056  0
8057  0
8058  0
8059  0
8060  0
8061  0
8062  0
8063  0
8064  0
8065  0
8066  0
8067  0
8068  0
8069  0
8070  0
8071  0
8072  0
8073  0
8074  0
8075  0
8076  0
8077  0
8078  0
8079  0
8080  0
8081  0
8082  0
8083  0
8084  0
8085  0
8086  0
8087  0
8088  0
8089  0
8090  0
8091  0
8092  0
8093  0
8094  0
8095  0
8096  0
8097  0
8098  0
8099  0
8100  0
8101  0
8102  0
8103  0
8104  0
8105  0
8106  0
8107  0
8108  0
8109  0
8110  0
8111  0
8112  0
8113  0
8114  0
8115  0
8116  0
8117  0
8118  0
8119  0
8120  0
8121  0
8122  0
8123  0
8124  0
8125  0
8126  0
8127  0
8128  0
8129  0
8130  0
8131  0
8132  0
8133  0
8134  0
8135  0
8136  0
8137  0
8138  0
8139  0
8140  0
8141  0
8142  0
8143  0
8144  0
8145  0
8146  0
8147  0
8148  0
8149  0
8150  0
8151  0
8152  0
8153  0
8154  0
8155  0
8156  0
8157  0
8158  0
8159  0
8160  0
8161  0
8162  0
8163  0
8164  0
8165  0
8166  0
8167  0
8168  0
8169  0
8170  0
8171  0
8172  0
8173  0
8174  0
8175  0
8176  0
8177  0
8178  0
8179  0
8180  0
8181  0
8182  0
8183  0
8184  0
8185  0
8186  0
8187  0
8188  0
8189  0
8190  0
8191  0
