0  1195
1  0
2  0
3  0
4  0
5  0
6  0
7  0
8  0
9  0
10  0
11  0
12  0
13  0
14  0
15  0
16  0
17  0
18  0
19  0
20  0
21  0
22  0
23  0
24  0
25  0
26  0
27  0
28  0
29  0
30  0
31  0
32  0
33  0
34  0
35  0
36  0
37  0
38  0
39  0
40  0
41  0
42  0
43  0
44  0
45  0
46  0
47  0
48  0
49  0
50  0
51  0
52  0
53  0
54  0
55  0
56  0
57  0
58  0
59  0
60  0
61  0
62  0
63  0
64  0
65  0
66  0
67  0
68  0
69  0
70  0
71  0
72  0
73  0
74  0
75  0
76  0
77  0
78  0
79  0
80  0
81  0
82  0
83  0
84  0
85  0
86  0
87  0
88  0
89  0
90  0
91  0
92  0
93  0
94  0
95  0
96  0
97  0
98  0
99  0
100  0
101  0
102  0
103  0
104  0
105  0
106  0
107  0
108  0
109  0
110  0
111  0
112  0
113  0
114  0
115  0
116  0
117  0
118  0
119  0
120  0
121  0
122  0
123  0
124  0
125  0
126  0
127  0
128  0
129  0
130  0
131  0
132  0
133  0
134  0
135  0
136  0
137  0
138  0
139  0
140  0
141  0
142  0
143  0
144  0
145  0
146  0
147  0
148  0
149  0
150  0
151  0
152  0
153  0
154  0
155  0
156  0
157  0
158  0
159  0
160  0
161  0
162  0
163  0
164  0
165  0
166  0
167  0
168  0
169  0
170  0
171  0
172  0
173  0
174  0
175  0
176  0
177  0
178  0
179  0
180  0
181  0
182  0
183  0
184  0
185  0
186  0
187  0
188  0
189  0
190  0
191  0
192  0
193  0
194  0
195  0
196  0
197  0
198  0
199  0
200  0
201  0
202  0
203  0
204  0
205  0
206  0
207  0
208  0
209  0
210  0
211  0
212  0
213  0
214  0
215  0
216  0
217  0
218  0
219  0
220  0
221  0
222  0
223  0
224  0
225  0
226  0
227  0
228  0
229  0
230  0
231  0
232  0
233  0
234  0
235  0
236  0
237  0
238  0
239  0
240  0
241  0
242  0
243  0
244  0
245  0
246  0
247  0
248  0
249  0
250  0
251  0
252  0
253  0
254  0
255  0
256  0
257  0
258  0
259  0
260  0
261  0
262  0
263  0
264  0
265  0
266  0
267  0
268  0
269  0
270  0
271  0
272  0
273  0
274  0
275  0
276  0
277  0
278  0
279  0
280  0
281  0
282  0
283  0
284  0
285  0
286  0
287  0
288  0
289  0
290  0
291  0
292  0
293  0
294  0
295  0
296  0
297  0
298  0
299  0
300  0
301  0
302  0
303  0
304  0
305  0
306  0
307  0
308  0
309  0
310  0
311  0
312  0
313  0
314  0
315  0
316  0
317  0
318  0
319  0
320  0
321  0
322  0
323  0
324  0
325  0
326  0
327  0
328  0
329  0
330  0
331  0
332  0
333  0
334  0
335  0
336  0
337  0
338  0
339  0
340  0
341  0
342  0
343  0
344  0
345  0
346  0
347  0
348  0
349  0
350  0
351  0
352  0
353  0
354  0
355  0
356  0
357  0
358  0
359  0
360  0
361  0
362  0
363  0
364  0
365  0
366  0
367  0
368  0
369  0
370  0
371  0
372  0
373  0
374  0
375  0
376  0
377  0
378  0
379  0
380  0
381  0
382  0
383  0
384  0
385  0
386  0
387  0
388  0
389  0
390  0
391  0
392  0
393  0
394  0
395  0
396  0
397  0
398  0
399  0
400  0
401  0
402  0
403  0
404  0
405  0
406  0
407  0
408  0
409  0
410  0
411  0
412  0
413  0
414  0
415  0
416  0
417  0
418  0
419  0
420  0
421  0
422  0
423  0
424  0
425  0
426  0
427  0
428  0
429  0
430  0
431  0
432  0
433  0
434  0
435  0
436  0
437  0
438  0
439  0
440  0
441  0
442  0
443  0
444  0
445  0
446  0
447  0
448  0
449  0
450  0
451  0
452  0
453  0
454  0
455  0
456  0
457  0
458  0
459  0
460  0
461  0
462  0
463  0
464  0
465  0
466  0
467  0
468  0
469  0
470  0
471  0
472  0
473  0
474  0
475  0
476  0
477  0
478  0
479  0
480  0
481  0
482  0
483  0
484  0
485  0
486  0
487  0
488  0
489  0
490  0
491  0
492  0
493  0
494  0
495  0
496  0
497  0
498  0
499  0
500  0
501  0
502  0
503  0
504  0
505  0
506  0
507  0
508  0
509  0
510  0
511  0
512  0
513  0
514  0
515  0
516  0
517  0
518  0
519  0
520  0
521  0
522  0
523  0
524  0
525  0
526  0
527  0
528  0
529  0
530  0
531  0
532  0
533  0
534  0
535  0
536  0
537  0
538  0
539  0
540  0
541  0
542  0
543  0
544  0
545  0
546  0
547  0
548  0
549  0
550  0
551  0
552  0
553  0
554  0
555  0
556  0
557  0
558  0
559  0
560  0
561  0
562  0
563  0
564  1
565  0
566  4
567  4
568  14
569  40
570  95
571  195
572  359
573  1289
574  1936
575  1955
576  1855
577  1785
578  1720
579  1715
580  1630
581  1524
582  1519
583  1448
584  1365
585  1303
586  1299
587  1261
588  1277
589  1225
590  1156
591  1188
592  1062
593  1129
594  1018
595  998
596  969
597  956
598  949
599  886
600  864
601  882
602  865
603  832
604  875
605  806
606  774
607  791
608  713
609  711
610  709
611  717
612  637
613  670
614  657
615  637
616  680
617  614
618  621
619  597
620  570
621  629
622  572
623  573
624  539
625  540
626  552
627  552
628  520
629  494
630  498
631  536
632  504
633  447
634  431
635  484
636  463
637  461
638  391
639  392
640  409
641  398
642  388
643  413
644  377
645  374
646  357
647  384
648  352
649  383
650  324
651  354
652  347
653  307
654  342
655  314
656  333
657  305
658  320
659  307
660  279
661  308
662  311
663  296
664  255
665  289
666  266
667  286
668  300
669  297
670  275
671  259
672  276
673  260
674  262
675  267
676  247
677  264
678  260
679  222
680  255
681  247
682  235
683  275
684  259
685  259
686  243
687  270
688  250
689  235
690  247
691  212
692  207
693  235
694  274
695  212
696  222
697  236
698  201
699  233
700  197
701  218
702  209
703  215
704  205
705  174
706  188
707  194
708  212
709  176
710  176
711  205
712  198
713  173
714  222
715  176
716  176
717  160
718  178
719  184
720  183
721  171
722  160
723  177
724  166
725  189
726  164
727  187
728  184
729  148
730  166
731  185
732  164
733  151
734  149
735  160
736  157
737  163
738  170
739  164
740  130
741  150
742  157
743  156
744  159
745  153
746  146
747  163
748  122
749  144
750  133
751  151
752  132
753  139
754  125
755  136
756  144
757  143
758  126
759  131
760  117
761  117
762  133
763  124
764  129
765  124
766  123
767  129
768  116
769  132
770  121
771  111
772  120
773  130
774  126
775  125
776  125
777  122
778  131
779  103
780  106
781  130
782  105
783  109
784  118
785  110
786  107
787  119
788  104
789  130
790  119
791  93
792  110
793  107
794  123
795  111
796  97
797  104
798  104
799  96
800  91
801  106
802  105
803  94
804  108
805  92
806  107
807  95
808  107
809  111
810  106
811  110
812  91
813  99
814  97
815  77
816  110
817  114
818  95
819  102
820  123
821  88
822  90
823  105
824  111
825  88
826  101
827  98
828  100
829  85
830  88
831  120
832  104
833  91
834  108
835  93
836  95
837  94
838  93
839  90
840  91
841  97
842  74
843  91
844  86
845  88
846  88
847  87
848  97
849  92
850  93
851  78
852  87
853  60
854  89
855  85
856  79
857  85
858  77
859  81
860  76
861  81
862  75
863  90
864  74
865  114
866  76
867  75
868  75
869  65
870  68
871  71
872  71
873  81
874  75
875  70
876  69
877  71
878  64
879  67
880  78
881  81
882  66
883  70
884  65
885  79
886  50
887  50
888  67
889  67
890  62
891  63
892  64
893  58
894  70
895  65
896  57
897  57
898  57
899  50
900  62
901  55
902  56
903  47
904  51
905  55
906  64
907  45
908  53
909  69
910  55
911  40
912  42
913  53
914  49
915  44
916  52
917  47
918  45
919  47
920  46
921  51
922  47
923  50
924  54
925  45
926  52
927  44
928  46
929  51
930  55
931  49
932  41
933  39
934  37
935  51
936  59
937  47
938  56
939  39
940  47
941  32
942  46
943  41
944  50
945  51
946  47
947  39
948  48
949  46
950  50
951  35
952  24
953  30
954  35
955  40
956  45
957  38
958  29
959  27
960  23
961  35
962  37
963  45
964  13
965  33
966  27
967  35
968  36
969  39
970  39
971  23
972  39
973  33
974  36
975  37
976  29
977  40
978  29
979  31
980  28
981  30
982  26
983  28
984  31
985  34
986  30
987  29
988  26
989  33
990  25
991  33
992  29
993  25
994  27
995  28
996  31
997  36
998  34
999  23
1000  23
1001  28
1002  29
1003  27
1004  23
1005  16
1006  21
1007  29
1008  21
1009  30
1010  24
1011  29
1012  26
1013  30
1014  26
1015  19
1016  30
1017  20
1018  24
1019  32
1020  22
1021  14
1022  22
1023  27
1024  23
1025  16
1026  30
1027  23
1028  20
1029  26
1030  18
1031  27
1032  23
1033  13
1034  26
1035  25
1036  17
1037  26
1038  10
1039  21
1040  23
1041  21
1042  12
1043  17
1044  22
1045  24
1046  14
1047  17
1048  21
1049  11
1050  15
1051  21
1052  15
1053  18
1054  12
1055  17
1056  23
1057  18
1058  18
1059  24
1060  10
1061  21
1062  19
1063  14
1064  20
1065  17
1066  17
1067  17
1068  13
1069  18
1070  18
1071  16
1072  16
1073  11
1074  11
1075  16
1076  13
1077  14
1078  15
1079  17
1080  19
1081  14
1082  25
1083  14
1084  15
1085  12
1086  11
1087  10
1088  13
1089  13
1090  22
1091  12
1092  10
1093  10
1094  8
1095  11
1096  11
1097  8
1098  16
1099  13
1100  14
1101  12
1102  13
1103  15
1104  10
1105  16
1106  9
1107  12
1108  11
1109  9
1110  10
1111  12
1112  15
1113  10
1114  10
1115  12
1116  14
1117  13
1118  5
1119  18
1120  10
1121  16
1122  9
1123  6
1124  11
1125  17
1126  15
1127  12
1128  7
1129  14
1130  14
1131  3
1132  12
1133  12
1134  6
1135  9
1136  10
1137  9
1138  8
1139  7
1140  7
1141  5
1142  11
1143  5
1144  7
1145  6
1146  7
1147  10
1148  10
1149  5
1150  17
1151  10
1152  10
1153  8
1154  11
1155  12
1156  9
1157  9
1158  6
1159  10
1160  13
1161  10
1162  3
1163  9
1164  5
1165  9
1166  9
1167  8
1168  12
1169  9
1170  11
1171  11
1172  13
1173  3
1174  9
1175  4
1176  5
1177  8
1178  10
1179  7
1180  9
1181  9
1182  9
1183  11
1184  10
1185  4
1186  10
1187  9
1188  8
1189  9
1190  8
1191  12
1192  8
1193  14
1194  6
1195  6
1196  12
1197  9
1198  8
1199  11
1200  12
1201  5
1202  7
1203  7
1204  7
1205  5
1206  0
1207  8
1208  6
1209  9
1210  5
1211  7
1212  5
1213  12
1214  10
1215  12
1216  17
1217  12
1218  4
1219  4
1220  9
1221  5
1222  4
1223  6
1224  6
1225  5
1226  11
1227  7
1228  5
1229  6
1230  10
1231  6
1232  14
1233  11
1234  4
1235  5
1236  8
1237  7
1238  3
1239  10
1240  4
1241  4
1242  9
1243  6
1244  8
1245  5
1246  5
1247  7
1248  6
1249  8
1250  4
1251  10
1252  5
1253  7
1254  10
1255  5
1256  3
1257  5
1258  7
1259  3
1260  6
1261  6
1262  4
1263  7
1264  4
1265  12
1266  5
1267  8
1268  4
1269  9
1270  11
1271  3
1272  11
1273  6
1274  3
1275  10
1276  1
1277  3
1278  7
1279  13
1280  4
1281  10
1282  5
1283  3
1284  4
1285  7
1286  11
1287  12
1288  3
1289  8
1290  9
1291  6
1292  7
1293  4
1294  4
1295  5
1296  3
1297  4
1298  5
1299  2
1300  2
1301  1
1302  9
1303  2
1304  10
1305  3
1306  5
1307  5
1308  5
1309  4
1310  7
1311  3
1312  4
1313  5
1314  6
1315  4
1316  3
1317  6
1318  5
1319  4
1320  7
1321  5
1322  2
1323  1
1324  4
1325  3
1326  7
1327  3
1328  6
1329  2
1330  7
1331  6
1332  3
1333  5
1334  5
1335  8
1336  5
1337  3
1338  3
1339  1
1340  6
1341  6
1342  6
1343  8
1344  6
1345  4
1346  11
1347  11
1348  3
1349  4
1350  4
1351  6
1352  3
1353  3
1354  5
1355  5
1356  3
1357  3
1358  5
1359  10
1360  2
1361  4
1362  4
1363  2
1364  9
1365  6
1366  5
1367  4
1368  5
1369  6
1370  1
1371  5
1372  7
1373  3
1374  2
1375  3
1376  9
1377  1
1378  5
1379  4
1380  3
1381  2
1382  4
1383  2
1384  3
1385  7
1386  7
1387  7
1388  1
1389  7
1390  6
1391  1
1392  8
1393  5
1394  5
1395  3
1396  2
1397  1
1398  6
1399  1
1400  6
1401  3
1402  5
1403  1
1404  3
1405  7
1406  7
1407  4
1408  1
1409  4
1410  0
1411  3
1412  7
1413  5
1414  3
1415  1
1416  5
1417  7
1418  1
1419  8
1420  5
1421  5
1422  4
1423  7
1424  4
1425  6
1426  3
1427  2
1428  6
1429  4
1430  9
1431  8
1432  4
1433  6
1434  7
1435  3
1436  8
1437  3
1438  6
1439  1
1440  9
1441  5
1442  3
1443  4
1444  0
1445  6
1446  6
1447  4
1448  1
1449  4
1450  2
1451  2
1452  5
1453  6
1454  4
1455  4
1456  4
1457  3
1458  5
1459  5
1460  6
1461  3
1462  3
1463  0
1464  4
1465  4
1466  2
1467  3
1468  3
1469  5
1470  4
1471  5
1472  3
1473  6
1474  4
1475  1
1476  5
1477  5
1478  6
1479  4
1480  6
1481  2
1482  4
1483  5
1484  8
1485  3
1486  1
1487  4
1488  4
1489  5
1490  4
1491  5
1492  2
1493  3
1494  6
1495  2
1496  8
1497  2
1498  6
1499  6
1500  4
1501  4
1502  3
1503  3
1504  5
1505  2
1506  5
1507  3
1508  3
1509  2
1510  2
1511  2
1512  5
1513  2
1514  4
1515  8
1516  5
1517  2
1518  2
1519  4
1520  7
1521  4
1522  0
1523  1
1524  2
1525  3
1526  3
1527  3
1528  1
1529  1
1530  4
1531  3
1532  1
1533  3
1534  4
1535  5
1536  1
1537  5
1538  0
1539  2
1540  2
1541  3
1542  4
1543  4
1544  6
1545  4
1546  0
1547  5
1548  0
1549  5
1550  2
1551  3
1552  2
1553  1
1554  4
1555  2
1556  3
1557  2
1558  0
1559  5
1560  2
1561  4
1562  7
1563  4
1564  3
1565  5
1566  0
1567  2
1568  2
1569  3
1570  4
1571  5
1572  6
1573  8
1574  1
1575  3
1576  0
1577  3
1578  2
1579  3
1580  3
1581  4
1582  4
1583  1
1584  1
1585  3
1586  4
1587  9
1588  6
1589  2
1590  3
1591  8
1592  3
1593  4
1594  5
1595  6
1596  3
1597  4
1598  2
1599  3
1600  6
1601  3
1602  3
1603  1
1604  5
1605  2
1606  2
1607  5
1608  7
1609  3
1610  0
1611  2
1612  2
1613  4
1614  2
1615  2
1616  4
1617  5
1618  3
1619  1
1620  7
1621  3
1622  0
1623  2
1624  4
1625  5
1626  0
1627  8
1628  6
1629  3
1630  2
1631  3
1632  4
1633  8
1634  4
1635  4
1636  3
1637  7
1638  2
1639  4
1640  5
1641  5
1642  2
1643  2
1644  1
1645  6
1646  5
1647  2
1648  1
1649  0
1650  6
1651  3
1652  2
1653  4
1654  3
1655  4
1656  5
1657  7
1658  3
1659  6
1660  4
1661  1
1662  2
1663  1
1664  3
1665  4
1666  1
1667  2
1668  2
1669  3
1670  2
1671  2
1672  0
1673  5
1674  3
1675  3
1676  3
1677  6
1678  3
1679  5
1680  0
1681  2
1682  0
1683  2
1684  4
1685  2
1686  1
1687  2
1688  2
1689  3
1690  1
1691  2
1692  2
1693  2
1694  3
1695  4
1696  1
1697  2
1698  3
1699  2
1700  3
1701  5
1702  1
1703  4
1704  4
1705  4
1706  3
1707  2
1708  1
1709  1
1710  2
1711  3
1712  3
1713  1
1714  0
1715  1
1716  4
1717  1
1718  0
1719  2
1720  3
1721  2
1722  7
1723  2
1724  4
1725  2
1726  2
1727  1
1728  4
1729  3
1730  4
1731  5
1732  2
1733  1
1734  0
1735  2
1736  2
1737  4
1738  2
1739  3
1740  3
1741  2
1742  2
1743  4
1744  4
1745  1
1746  3
1747  0
1748  4
1749  0
1750  2
1751  2
1752  4
1753  3
1754  2
1755  4
1756  2
1757  5
1758  2
1759  3
1760  2
1761  4
1762  4
1763  5
1764  5
1765  6
1766  4
1767  1
1768  3
1769  2
1770  3
1771  2
1772  1
1773  3
1774  3
1775  6
1776  5
1777  5
1778  2
1779  3
1780  4
1781  2
1782  4
1783  6
1784  3
1785  4
1786  2
1787  1
1788  4
1789  1
1790  0
1791  0
1792  4
1793  4
1794  1
1795  3
1796  4
1797  1
1798  3
1799  1
1800  1
1801  4
1802  5
1803  3
1804  0
1805  1
1806  3
1807  6
1808  0
1809  2
1810  6
1811  2
1812  4
1813  1
1814  3
1815  6
1816  4
1817  5
1818  2
1819  2
1820  1
1821  1
1822  5
1823  4
1824  2
1825  3
1826  3
1827  4
1828  2
1829  3
1830  3
1831  2
1832  3
1833  4
1834  1
1835  4
1836  5
1837  2
1838  3
1839  7
1840  2
1841  0
1842  2
1843  1
1844  2
1845  2
1846  1
1847  0
1848  3
1849  3
1850  3
1851  2
1852  5
1853  0
1854  2
1855  5
1856  2
1857  2
1858  3
1859  2
1860  0
1861  1
1862  5
1863  1
1864  3
1865  3
1866  1
1867  1
1868  0
1869  1
1870  0
1871  2
1872  4
1873  4
1874  3
1875  3
1876  2
1877  1
1878  5
1879  1
1880  4
1881  3
1882  5
1883  1
1884  3
1885  3
1886  2
1887  4
1888  6
1889  4
1890  1
1891  4
1892  1
1893  1
1894  2
1895  2
1896  1
1897  1
1898  3
1899  0
1900  3
1901  2
1902  4
1903  1
1904  3
1905  2
1906  5
1907  3
1908  1
1909  1
1910  4
1911  2
1912  2
1913  4
1914  2
1915  2
1916  4
1917  3
1918  2
1919  3
1920  3
1921  2
1922  2
1923  3
1924  4
1925  1
1926  1
1927  1
1928  2
1929  4
1930  2
1931  2
1932  3
1933  1
1934  1
1935  0
1936  3
1937  4
1938  2
1939  3
1940  5
1941  5
1942  3
1943  3
1944  3
1945  1
1946  7
1947  3
1948  5
1949  3
1950  2
1951  2
1952  2
1953  2
1954  4
1955  4
1956  2
1957  3
1958  3
1959  3
1960  6
1961  1
1962  1
1963  7
1964  4
1965  4
1966  2
1967  1
1968  5
1969  3
1970  4
1971  6
1972  1
1973  2
1974  3
1975  3
1976  1
1977  1
1978  2
1979  5
1980  0
1981  0
1982  2
1983  2
1984  1
1985  0
1986  1
1987  3
1988  2
1989  2
1990  3
1991  2
1992  2
1993  3
1994  0
1995  0
1996  1
1997  1
1998  1
1999  3
2000  2
2001  2
2002  2
2003  3
2004  3
2005  0
2006  4
2007  4
2008  2
2009  2
2010  1
2011  0
2012  2
2013  3
2014  4
2015  0
2016  1
2017  0
2018  1
2019  2
2020  2
2021  4
2022  3
2023  3
2024  3
2025  4
2026  4
2027  1
2028  4
2029  0
2030  1
2031  1
2032  2
2033  2
2034  1
2035  0
2036  2
2037  3
2038  2
2039  2
2040  1
2041  1
2042  3
2043  5
2044  0
2045  3
2046  0
2047  2
2048  2
2049  0
2050  1
2051  3
2052  1
2053  1
2054  2
2055  1
2056  3
2057  0
2058  0
2059  3
2060  0
2061  2
2062  1
2063  3
2064  3
2065  2
2066  1
2067  0
2068  4
2069  0
2070  4
2071  2
2072  1
2073  3
2074  3
2075  1
2076  2
2077  0
2078  3
2079  4
2080  0
2081  0
2082  2
2083  1
2084  2
2085  2
2086  1
2087  4
2088  3
2089  1
2090  1
2091  2
2092  0
2093  2
2094  4
2095  2
2096  4
2097  1
2098  2
2099  0
2100  2
2101  0
2102  3
2103  5
2104  1
2105  2
2106  1
2107  3
2108  0
2109  1
2110  1
2111  1
2112  3
2113  0
2114  1
2115  1
2116  0
2117  4
2118  2
2119  4
2120  3
2121  0
2122  0
2123  5
2124  0
2125  2
2126  0
2127  3
2128  1
2129  1
2130  3
2131  2
2132  3
2133  3
2134  0
2135  1
2136  2
2137  2
2138  0
2139  2
2140  5
2141  4
2142  1
2143  2
2144  2
2145  3
2146  0
2147  0
2148  3
2149  2
2150  2
2151  1
2152  0
2153  0
2154  4
2155  2
2156  5
2157  1
2158  5
2159  2
2160  2
2161  0
2162  2
2163  2
2164  1
2165  0
2166  2
2167  2
2168  2
2169  1
2170  4
2171  2
2172  1
2173  0
2174  1
2175  1
2176  4
2177  0
2178  0
2179  3
2180  2
2181  3
2182  1
2183  2
2184  4
2185  1
2186  1
2187  1
2188  1
2189  3
2190  2
2191  2
2192  3
2193  3
2194  3
2195  1
2196  7
2197  1
2198  1
2199  4
2200  0
2201  1
2202  1
2203  3
2204  3
2205  1
2206  0
2207  2
2208  1
2209  1
2210  2
2211  2
2212  1
2213  2
2214  2
2215  1
2216  2
2217  2
2218  0
2219  2
2220  1
2221  0
2222  4
2223  1
2224  1
2225  2
2226  2
2227  3
2228  3
2229  4
2230  0
2231  2
2232  1
2233  1
2234  2
2235  1
2236  2
2237  2
2238  3
2239  1
2240  1
2241  3
2242  1
2243  1
2244  1
2245  3
2246  1
2247  4
2248  3
2249  1
2250  1
2251  1
2252  1
2253  0
2254  2
2255  3
2256  0
2257  3
2258  2
2259  3
2260  2
2261  0
2262  3
2263  2
2264  3
2265  2
2266  1
2267  5
2268  0
2269  2
2270  0
2271  1
2272  3
2273  2
2274  4
2275  1
2276  1
2277  0
2278  1
2279  2
2280  4
2281  0
2282  4
2283  2
2284  2
2285  0
2286  1
2287  2
2288  1
2289  1
2290  0
2291  1
2292  2
2293  0
2294  0
2295  1
2296  1
2297  2
2298  1
2299  0
2300  1
2301  1
2302  1
2303  0
2304  0
2305  4
2306  0
2307  1
2308  2
2309  1
2310  0
2311  0
2312  0
2313  0
2314  3
2315  1
2316  0
2317  1
2318  2
2319  3
2320  1
2321  0
2322  2
2323  0
2324  0
2325  0
2326  0
2327  1
2328  2
2329  3
2330  2
2331  2
2332  2
2333  0
2334  2
2335  3
2336  1
2337  2
2338  1
2339  4
2340  4
2341  4
2342  1
2343  1
2344  1
2345  3
2346  0
2347  2
2348  2
2349  0
2350  0
2351  5
2352  2
2353  3
2354  4
2355  7
2356  2
2357  1
2358  4
2359  2
2360  2
2361  0
2362  3
2363  2
2364  0
2365  1
2366  4
2367  3
2368  2
2369  4
2370  4
2371  3
2372  3
2373  2
2374  1
2375  1
2376  3
2377  2
2378  4
2379  1
2380  2
2381  5
2382  2
2383  2
2384  2
2385  0
2386  5
2387  2
2388  3
2389  1
2390  1
2391  6
2392  0
2393  1
2394  2
2395  1
2396  2
2397  2
2398  2
2399  2
2400  1
2401  3
2402  0
2403  4
2404  2
2405  5
2406  0
2407  0
2408  3
2409  3
2410  0
2411  1
2412  3
2413  3
2414  3
2415  1
2416  4
2417  2
2418  0
2419  1
2420  1
2421  1
2422  2
2423  1
2424  2
2425  0
2426  2
2427  1
2428  2
2429  1
2430  2
2431  1
2432  2
2433  0
2434  1
2435  2
2436  0
2437  3
2438  2
2439  1
2440  1
2441  2
2442  0
2443  1
2444  1
2445  2
2446  1
2447  2
2448  0
2449  2
2450  3
2451  1
2452  2
2453  2
2454  2
2455  2
2456  0
2457  0
2458  0
2459  3
2460  5
2461  1
2462  2
2463  1
2464  2
2465  2
2466  4
2467  1
2468  2
2469  4
2470  0
2471  2
2472  1
2473  0
2474  1
2475  1
2476  0
2477  0
2478  3
2479  3
2480  2
2481  0
2482  2
2483  1
2484  5
2485  2
2486  0
2487  1
2488  0
2489  3
2490  4
2491  0
2492  4
2493  3
2494  2
2495  0
2496  3
2497  0
2498  2
2499  1
2500  0
2501  3
2502  1
2503  2
2504  2
2505  0
2506  0
2507  1
2508  2
2509  1
2510  1
2511  2
2512  1
2513  4
2514  2
2515  2
2516  2
2517  4
2518  2
2519  0
2520  2
2521  1
2522  3
2523  1
2524  0
2525  1
2526  2
2527  0
2528  3
2529  1
2530  1
2531  1
2532  1
2533  2
2534  3
2535  2
2536  2
2537  1
2538  1
2539  3
2540  1
2541  0
2542  5
2543  2
2544  1
2545  1
2546  3
2547  3
2548  1
2549  2
2550  1
2551  6
2552  0
2553  2
2554  0
2555  2
2556  1
2557  0
2558  3
2559  0
2560  1
2561  2
2562  1
2563  3
2564  1
2565  2
2566  2
2567  0
2568  2
2569  0
2570  0
2571  1
2572  0
2573  0
2574  3
2575  2
2576  1
2577  0
2578  2
2579  2
2580  0
2581  1
2582  3
2583  1
2584  2
2585  2
2586  1
2587  2
2588  1
2589  1
2590  2
2591  2
2592  1
2593  1
2594  1
2595  0
2596  1
2597  2
2598  1
2599  1
2600  3
2601  1
2602  1
2603  1
2604  0
2605  1
2606  5
2607  2
2608  0
2609  2
2610  1
2611  1
2612  2
2613  1
2614  1
2615  1
2616  2
2617  0
2618  0
2619  0
2620  0
2621  1
2622  2
2623  3
2624  2
2625  1
2626  1
2627  4
2628  0
2629  0
2630  3
2631  1
2632  3
2633  0
2634  1
2635  1
2636  0
2637  2
2638  0
2639  1
2640  0
2641  1
2642  2
2643  0
2644  0
2645  2
2646  1
2647  1
2648  1
2649  2
2650  2
2651  1
2652  1
2653  1
2654  2
2655  2
2656  1
2657  0
2658  0
2659  0
2660  3
2661  0
2662  2
2663  2
2664  0
2665  1
2666  2
2667  0
2668  0
2669  0
2670  1
2671  3
2672  2
2673  0
2674  0
2675  3
2676  1
2677  2
2678  1
2679  1
2680  1
2681  2
2682  1
2683  1
2684  1
2685  2
2686  3
2687  2
2688  0
2689  1
2690  0
2691  2
2692  0
2693  0
2694  2
2695  1
2696  1
2697  2
2698  0
2699  2
2700  1
2701  1
2702  0
2703  1
2704  1
2705  2
2706  1
2707  0
2708  1
2709  1
2710  1
2711  0
2712  0
2713  2
2714  4
2715  3
2716  1
2717  1
2718  3
2719  3
2720  0
2721  1
2722  1
2723  2
2724  0
2725  1
2726  1
2727  3
2728  4
2729  2
2730  3
2731  1
2732  3
2733  0
2734  3
2735  1
2736  0
2737  1
2738  1
2739  0
2740  0
2741  1
2742  4
2743  1
2744  1
2745  2
2746  4
2747  2
2748  1
2749  2
2750  0
2751  0
2752  1
2753  0
2754  2
2755  4
2756  2
2757  1
2758  3
2759  2
2760  0
2761  0
2762  3
2763  3
2764  3
2765  0
2766  5
2767  0
2768  0
2769  0
2770  2
2771  2
2772  3
2773  0
2774  5
2775  3
2776  5
2777  3
2778  6
2779  1
2780  4
2781  2
2782  0
2783  1
2784  2
2785  0
2786  3
2787  2
2788  0
2789  2
2790  2
2791  1
2792  0
2793  1
2794  1
2795  4
2796  2
2797  4
2798  4
2799  3
2800  1
2801  0
2802  1
2803  4
2804  3
2805  3
2806  3
2807  2
2808  0
2809  3
2810  1
2811  0
2812  2
2813  3
2814  0
2815  4
2816  3
2817  2
2818  3
2819  3
2820  0
2821  4
2822  1
2823  2
2824  1
2825  4
2826  3
2827  1
2828  5
2829  2
2830  2
2831  4
2832  1
2833  3
2834  2
2835  1
2836  1
2837  4
2838  2
2839  0
2840  2
2841  3
2842  0
2843  3
2844  1
2845  2
2846  4
2847  3
2848  3
2849  4
2850  2
2851  3
2852  3
2853  1
2854  1
2855  2
2856  2
2857  3
2858  0
2859  3
2860  2
2861  1
2862  3
2863  1
2864  2
2865  4
2866  1
2867  3
2868  1
2869  3
2870  0
2871  2
2872  0
2873  1
2874  3
2875  3
2876  0
2877  2
2878  3
2879  2
2880  2
2881  4
2882  1
2883  3
2884  3
2885  2
2886  0
2887  3
2888  5
2889  3
2890  2
2891  2
2892  4
2893  2
2894  2
2895  2
2896  2
2897  3
2898  1
2899  6
2900  5
2901  1
2902  3
2903  1
2904  3
2905  2
2906  2
2907  1
2908  1
2909  2
2910  1
2911  0
2912  3
2913  0
2914  4
2915  1
2916  1
2917  3
2918  0
2919  1
2920  1
2921  3
2922  1
2923  1
2924  2
2925  3
2926  2
2927  3
2928  0
2929  5
2930  1
2931  2
2932  0
2933  4
2934  2
2935  2
2936  1
2937  3
2938  5
2939  1
2940  1
2941  1
2942  1
2943  3
2944  2
2945  4
2946  3
2947  2
2948  2
2949  9
2950  2
2951  2
2952  1
2953  2
2954  4
2955  3
2956  0
2957  0
2958  3
2959  0
2960  3
2961  1
2962  1
2963  1
2964  1
2965  1
2966  3
2967  3
2968  0
2969  1
2970  0
2971  1
2972  1
2973  2
2974  0
2975  2
2976  2
2977  1
2978  1
2979  5
2980  2
2981  0
2982  0
2983  1
2984  2
2985  4
2986  2
2987  4
2988  1
2989  3
2990  1
2991  1
2992  2
2993  3
2994  1
2995  3
2996  2
2997  3
2998  1
2999  1
3000  0
3001  1
3002  1
3003  2
3004  1
3005  4
3006  2
3007  3
3008  3
3009  1
3010  1
3011  2
3012  2
3013  2
3014  2
3015  1
3016  0
3017  1
3018  2
3019  2
3020  4
3021  1
3022  1
3023  1
3024  3
3025  0
3026  1
3027  3
3028  1
3029  4
3030  0
3031  2
3032  3
3033  1
3034  0
3035  3
3036  1
3037  2
3038  3
3039  0
3040  2
3041  3
3042  4
3043  3
3044  0
3045  3
3046  1
3047  2
3048  2
3049  2
3050  1
3051  2
3052  0
3053  2
3054  2
3055  1
3056  1
3057  5
3058  1
3059  2
3060  0
3061  3
3062  0
3063  2
3064  2
3065  1
3066  1
3067  2
3068  1
3069  2
3070  0
3071  1
3072  1
3073  1
3074  5
3075  2
3076  1
3077  2
3078  3
3079  5
3080  3
3081  0
3082  0
3083  1
3084  2
3085  2
3086  2
3087  2
3088  1
3089  1
3090  0
3091  4
3092  0
3093  1
3094  1
3095  0
3096  0
3097  6
3098  1
3099  0
3100  0
3101  1
3102  3
3103  0
3104  1
3105  1
3106  0
3107  1
3108  1
3109  0
3110  0
3111  3
3112  3
3113  1
3114  2
3115  2
3116  1
3117  3
3118  0
3119  0
3120  2
3121  2
3122  2
3123  2
3124  1
3125  3
3126  0
3127  0
3128  2
3129  2
3130  2
3131  5
3132  2
3133  2
3134  2
3135  2
3136  5
3137  0
3138  1
3139  1
3140  4
3141  3
3142  7
3143  1
3144  1
3145  3
3146  2
3147  3
3148  0
3149  2
3150  3
3151  3
3152  1
3153  1
3154  2
3155  0
3156  1
3157  1
3158  2
3159  0
3160  3
3161  2
3162  0
3163  1
3164  4
3165  2
3166  2
3167  3
3168  3
3169  1
3170  3
3171  3
3172  4
3173  1
3174  2
3175  1
3176  3
3177  2
3178  1
3179  2
3180  4
3181  2
3182  3
3183  1
3184  2
3185  1
3186  1
3187  1
3188  4
3189  3
3190  2
3191  5
3192  2
3193  2
3194  2
3195  0
3196  0
3197  1
3198  0
3199  2
3200  1
3201  2
3202  3
3203  0
3204  1
3205  1
3206  3
3207  3
3208  0
3209  1
3210  0
3211  3
3212  1
3213  1
3214  0
3215  2
3216  3
3217  1
3218  4
3219  2
3220  3
3221  1
3222  2
3223  1
3224  0
3225  2
3226  1
3227  1
3228  2
3229  0
3230  3
3231  2
3232  0
3233  0
3234  0
3235  5
3236  1
3237  2
3238  1
3239  3
3240  1
3241  0
3242  2
3243  0
3244  1
3245  1
3246  5
3247  2
3248  2
3249  1
3250  3
3251  1
3252  3
3253  4
3254  2
3255  0
3256  6
3257  1
3258  2
3259  1
3260  3
3261  4
3262  0
3263  0
3264  2
3265  0
3266  1
3267  5
3268  1
3269  2
3270  0
3271  0
3272  1
3273  2
3274  2
3275  2
3276  5
3277  2
3278  1
3279  2
3280  1
3281  4
3282  2
3283  1
3284  1
3285  0
3286  3
3287  0
3288  1
3289  1
3290  0
3291  0
3292  1
3293  1
3294  2
3295  2
3296  2
3297  2
3298  1
3299  2
3300  3
3301  2
3302  1
3303  0
3304  2
3305  0
3306  5
3307  1
3308  0
3309  5
3310  2
3311  1
3312  1
3313  1
3314  4
3315  1
3316  2
3317  1
3318  0
3319  2
3320  3
3321  5
3322  2
3323  1
3324  1
3325  0
3326  0
3327  0
3328  2
3329  1
3330  0
3331  3
3332  1
3333  1
3334  2
3335  5
3336  3
3337  3
3338  1
3339  1
3340  1
3341  1
3342  2
3343  1
3344  1
3345  2
3346  0
3347  2
3348  1
3349  1
3350  0
3351  4
3352  1
3353  3
3354  0
3355  2
3356  3
3357  4
3358  0
3359  1
3360  1
3361  1
3362  2
3363  2
3364  0
3365  4
3366  1
3367  1
3368  4
3369  1
3370  0
3371  1
3372  0
3373  1
3374  2
3375  2
3376  1
3377  1
3378  3
3379  2
3380  2
3381  1
3382  5
3383  1
3384  2
3385  1
3386  3
3387  1
3388  0
3389  1
3390  1
3391  3
3392  3
3393  3
3394  1
3395  0
3396  1
3397  2
3398  1
3399  1
3400  3
3401  1
3402  1
3403  0
3404  4
3405  1
3406  0
3407  1
3408  6
3409  2
3410  1
3411  3
3412  3
3413  1
3414  4
3415  1
3416  4
3417  3
3418  1
3419  1
3420  5
3421  3
3422  1
3423  0
3424  2
3425  0
3426  1
3427  2
3428  1
3429  0
3430  5
3431  2
3432  1
3433  3
3434  5
3435  1
3436  3
3437  4
3438  2
3439  5
3440  1
3441  4
3442  2
3443  3
3444  4
3445  1
3446  1
3447  1
3448  0
3449  4
3450  1
3451  2
3452  0
3453  4
3454  2
3455  2
3456  0
3457  0
3458  3
3459  0
3460  1
3461  2
3462  0
3463  1
3464  1
3465  2
3466  3
3467  2
3468  3
3469  0
3470  3
3471  2
3472  3
3473  4
3474  0
3475  0
3476  1
3477  0
3478  1
3479  3
3480  2
3481  1
3482  0
3483  3
3484  2
3485  1
3486  1
3487  1
3488  1
3489  0
3490  1
3491  2
3492  0
3493  0
3494  1
3495  1
3496  0
3497  1
3498  1
3499  1
3500  2
3501  3
3502  2
3503  2
3504  4
3505  3
3506  1
3507  4
3508  1
3509  0
3510  2
3511  2
3512  2
3513  0
3514  2
3515  0
3516  1
3517  1
3518  1
3519  1
3520  0
3521  2
3522  4
3523  3
3524  1
3525  2
3526  1
3527  0
3528  2
3529  2
3530  1
3531  2
3532  1
3533  1
3534  4
3535  1
3536  1
3537  1
3538  0
3539  0
3540  0
3541  2
3542  0
3543  1
3544  1
3545  1
3546  1
3547  3
3548  2
3549  0
3550  1
3551  2
3552  2
3553  2
3554  2
3555  1
3556  4
3557  2
3558  0
3559  0
3560  2
3561  5
3562  2
3563  3
3564  1
3565  3
3566  3
3567  1
3568  1
3569  2
3570  0
3571  0
3572  1
3573  0
3574  2
3575  0
3576  2
3577  0
3578  1
3579  0
3580  2
3581  1
3582  3
3583  0
3584  4
3585  1
3586  3
3587  2
3588  3
3589  1
3590  2
3591  2
3592  2
3593  2
3594  0
3595  2
3596  0
3597  5
3598  2
3599  2
3600  0
3601  0
3602  3
3603  1
3604  2
3605  2
3606  0
3607  1
3608  2
3609  1
3610  2
3611  4
3612  2
3613  4
3614  0
3615  5
3616  0
3617  0
3618  1
3619  1
3620  2
3621  1
3622  2
3623  2
3624  3
3625  0
3626  1
3627  0
3628  1
3629  1
3630  1
3631  1
3632  0
3633  1
3634  1
3635  3
3636  1
3637  0
3638  0
3639  2
3640  0
3641  0
3642  1
3643  1
3644  2
3645  2
3646  0
3647  2
3648  2
3649  0
3650  0
3651  1
3652  2
3653  1
3654  5
3655  2
3656  0
3657  1
3658  2
3659  0
3660  1
3661  7
3662  3
3663  1
3664  1
3665  3
3666  0
3667  2
3668  0
3669  1
3670  4
3671  2
3672  2
3673  1
3674  0
3675  2
3676  2
3677  4
3678  2
3679  4
3680  1
3681  4
3682  2
3683  2
3684  0
3685  2
3686  4
3687  1
3688  2
3689  2
3690  4
3691  3
3692  0
3693  1
3694  0
3695  2
3696  1
3697  2
3698  0
3699  2
3700  2
3701  1
3702  1
3703  2
3704  2
3705  3
3706  3
3707  3
3708  3
3709  2
3710  0
3711  0
3712  1
3713  1
3714  2
3715  4
3716  1
3717  0
3718  0
3719  0
3720  2
3721  2
3722  1
3723  2
3724  0
3725  1
3726  1
3727  3
3728  1
3729  2
3730  3
3731  0
3732  1
3733  1
3734  1
3735  1
3736  2
3737  0
3738  1
3739  2
3740  1
3741  1
3742  1
3743  0
3744  2
3745  1
3746  0
3747  0
3748  1
3749  3
3750  3
3751  0
3752  0
3753  1
3754  0
3755  3
3756  0
3757  2
3758  2
3759  3
3760  0
3761  1
3762  1
3763  0
3764  0
3765  1
3766  0
3767  0
3768  1
3769  1
3770  0
3771  1
3772  1
3773  2
3774  0
3775  0
3776  1
3777  2
3778  2
3779  1
3780  1
3781  3
3782  0
3783  0
3784  3
3785  1
3786  2
3787  4
3788  0
3789  1
3790  0
3791  0
3792  0
3793  1
3794  0
3795  1
3796  0
3797  0
3798  1
3799  0
3800  1
3801  2
3802  0
3803  1
3804  1
3805  1
3806  1
3807  3
3808  2
3809  2
3810  1
3811  2
3812  2
3813  0
3814  0
3815  0
3816  3
3817  2
3818  0
3819  0
3820  3
3821  0
3822  1
3823  1
3824  0
3825  1
3826  4
3827  0
3828  1
3829  0
3830  3
3831  0
3832  1
3833  0
3834  2
3835  3
3836  0
3837  1
3838  0
3839  1
3840  2
3841  2
3842  2
3843  1
3844  1
3845  1
3846  0
3847  1
3848  1
3849  3
3850  1
3851  0
3852  0
3853  1
3854  0
3855  1
3856  3
3857  1
3858  1
3859  1
3860  1
3861  2
3862  2
3863  1
3864  1
3865  2
3866  1
3867  3
3868  1
3869  0
3870  2
3871  1
3872  1
3873  1
3874  2
3875  0
3876  3
3877  0
3878  0
3879  1
3880  1
3881  2
3882  0
3883  2
3884  0
3885  1
3886  0
3887  1
3888  4
3889  2
3890  3
3891  1
3892  5
3893  0
3894  1
3895  0
3896  2
3897  3
3898  1
3899  3
3900  1
3901  2
3902  1
3903  1
3904  1
3905  2
3906  0
3907  2
3908  0
3909  0
3910  2
3911  1
3912  1
3913  0
3914  2
3915  0
3916  4
3917  3
3918  1
3919  2
3920  2
3921  1
3922  1
3923  1
3924  0
3925  0
3926  1
3927  2
3928  1
3929  1
3930  2
3931  1
3932  0
3933  0
3934  1
3935  0
3936  2
3937  0
3938  1
3939  1
3940  0
3941  1
3942  1
3943  2
3944  0
3945  0
3946  1
3947  0
3948  2
3949  2
3950  3
3951  0
3952  2
3953  2
3954  3
3955  0
3956  1
3957  0
3958  1
3959  0
3960  2
3961  0
3962  3
3963  0
3964  3
3965  4
3966  0
3967  1
3968  1
3969  3
3970  0
3971  1
3972  1
3973  4
3974  2
3975  1
3976  1
3977  0
3978  2
3979  1
3980  2
3981  4
3982  1
3983  0
3984  0
3985  0
3986  2
3987  1
3988  2
3989  3
3990  0
3991  2
3992  2
3993  0
3994  1
3995  1
3996  0
3997  0
3998  0
3999  0
4000  3
4001  3
4002  1
4003  2
4004  1
4005  1
4006  1
4007  2
4008  1
4009  1
4010  1
4011  0
4012  1
4013  1
4014  0
4015  0
4016  1
4017  1
4018  0
4019  2
4020  0
4021  0
4022  0
4023  1
4024  0
4025  1
4026  1
4027  1
4028  0
4029  2
4030  1
4031  1
4032  1
4033  2
4034  1
4035  1
4036  1
4037  0
4038  0
4039  0
4040  1
4041  3
4042  0
4043  0
4044  0
4045  0
4046  2
4047  2
4048  0
4049  0
4050  1
4051  2
4052  0
4053  0
4054  1
4055  2
4056  0
4057  0
4058  0
4059  1
4060  1
4061  0
4062  1
4063  0
4064  0
4065  1
4066  1
4067  2
4068  1
4069  0
4070  4
4071  2
4072  1
4073  0
4074  1
4075  1
4076  0
4077  0
4078  2
4079  1
4080  0
4081  1
4082  2
4083  2
4084  0
4085  1
4086  1
4087  1
4088  3
4089  0
4090  1
4091  0
4092  1
4093  2
4094  2
4095  0
4096  1
4097  0
4098  4
4099  0
4100  0
4101  4
4102  1
4103  0
4104  1
4105  0
4106  1
4107  2
4108  2
4109  2
4110  2
4111  3
4112  1
4113  4
4114  2
4115  1
4116  0
4117  0
4118  2
4119  0
4120  1
4121  1
4122  2
4123  1
4124  0
4125  2
4126  2
4127  1
4128  2
4129  1
4130  4
4131  4
4132  2
4133  2
4134  0
4135  1
4136  1
4137  1
4138  2
4139  2
4140  0
4141  2
4142  1
4143  2
4144  4
4145  1
4146  2
4147  0
4148  4
4149  3
4150  0
4151  0
4152  3
4153  1
4154  3
4155  1
4156  2
4157  4
4158  5
4159  0
4160  4
4161  1
4162  3
4163  4
4164  2
4165  1
4166  0
4167  4
4168  2
4169  2
4170  1
4171  1
4172  0
4173  1
4174  0
4175  1
4176  2
4177  0
4178  2
4179  4
4180  2
4181  2
4182  0
4183  0
4184  0
4185  1
4186  3
4187  0
4188  1
4189  2
4190  1
4191  0
4192  3
4193  3
4194  1
4195  1
4196  1
4197  1
4198  1
4199  2
4200  2
4201  1
4202  1
4203  2
4204  3
4205  1
4206  3
4207  3
4208  6
4209  2
4210  3
4211  2
4212  0
4213  1
4214  2
4215  0
4216  1
4217  3
4218  3
4219  3
4220  1
4221  2
4222  0
4223  1
4224  1
4225  1
4226  0
4227  0
4228  1
4229  1
4230  1
4231  0
4232  3
4233  2
4234  1
4235  3
4236  1
4237  2
4238  1
4239  0
4240  0
4241  1
4242  0
4243  0
4244  3
4245  3
4246  3
4247  3
4248  0
4249  2
4250  0
4251  1
4252  2
4253  2
4254  3
4255  0
4256  5
4257  1
4258  1
4259  1
4260  2
4261  5
4262  1
4263  1
4264  1
4265  1
4266  0
4267  1
4268  6
4269  1
4270  2
4271  4
4272  1
4273  1
4274  0
4275  1
4276  1
4277  1
4278  3
4279  1
4280  1
4281  1
4282  1
4283  0
4284  0
4285  3
4286  0
4287  0
4288  1
4289  2
4290  4
4291  6
4292  0
4293  1
4294  0
4295  1
4296  0
4297  1
4298  2
4299  0
4300  1
4301  0
4302  4
4303  2
4304  0
4305  0
4306  3
4307  0
4308  2
4309  0
4310  0
4311  1
4312  2
4313  3
4314  3
4315  2
4316  1
4317  1
4318  1
4319  2
4320  0
4321  1
4322  0
4323  0
4324  3
4325  2
4326  1
4327  0
4328  3
4329  1
4330  2
4331  2
4332  1
4333  3
4334  0
4335  1
4336  0
4337  2
4338  4
4339  5
4340  1
4341  2
4342  5
4343  1
4344  3
4345  2
4346  0
4347  1
4348  2
4349  0
4350  4
4351  1
4352  2
4353  0
4354  3
4355  0
4356  2
4357  1
4358  4
4359  2
4360  1
4361  5
4362  2
4363  1
4364  2
4365  5
4366  6
4367  4
4368  3
4369  2
4370  1
4371  1
4372  1
4373  1
4374  1
4375  2
4376  2
4377  0
4378  2
4379  1
4380  0
4381  3
4382  4
4383  2
4384  0
4385  2
4386  0
4387  1
4388  2
4389  0
4390  0
4391  0
4392  0
4393  3
4394  2
4395  1
4396  2
4397  3
4398  1
4399  3
4400  3
4401  1
4402  5
4403  2
4404  1
4405  0
4406  5
4407  2
4408  2
4409  2
4410  1
4411  1
4412  4
4413  2
4414  0
4415  0
4416  0
4417  1
4418  2
4419  1
4420  2
4421  1
4422  3
4423  1
4424  2
4425  2
4426  2
4427  2
4428  2
4429  6
4430  2
4431  1
4432  5
4433  1
4434  0
4435  3
4436  1
4437  3
4438  2
4439  4
4440  1
4441  0
4442  3
4443  1
4444  3
4445  0
4446  4
4447  4
4448  1
4449  3
4450  3
4451  2
4452  3
4453  3
4454  1
4455  1
4456  2
4457  1
4458  2
4459  0
4460  0
4461  4
4462  1
4463  0
4464  2
4465  2
4466  2
4467  0
4468  2
4469  0
4470  3
4471  2
4472  0
4473  1
4474  0
4475  1
4476  2
4477  1
4478  1
4479  0
4480  0
4481  1
4482  1
4483  0
4484  0
4485  2
4486  3
4487  1
4488  0
4489  0
4490  3
4491  1
4492  0
4493  1
4494  0
4495  4
4496  1
4497  0
4498  2
4499  0
4500  0
4501  0
4502  2
4503  2
4504  0
4505  3
4506  1
4507  2
4508  0
4509  2
4510  1
4511  2
4512  0
4513  0
4514  4
4515  2
4516  1
4517  4
4518  1
4519  0
4520  2
4521  1
4522  2
4523  1
4524  2
4525  2
4526  3
4527  1
4528  2
4529  3
4530  0
4531  2
4532  1
4533  2
4534  1
4535  4
4536  0
4537  1
4538  3
4539  0
4540  1
4541  3
4542  2
4543  3
4544  1
4545  1
4546  2
4547  0
4548  2
4549  1
4550  2
4551  0
4552  1
4553  1
4554  1
4555  2
4556  3
4557  2
4558  1
4559  3
4560  2
4561  1
4562  0
4563  3
4564  1
4565  0
4566  1
4567  2
4568  3
4569  0
4570  1
4571  2
4572  2
4573  1
4574  1
4575  0
4576  5
4577  0
4578  5
4579  0
4580  4
4581  1
4582  1
4583  0
4584  1
4585  3
4586  0
4587  2
4588  3
4589  2
4590  2
4591  1
4592  1
4593  0
4594  2
4595  0
4596  0
4597  2
4598  4
4599  4
4600  2
4601  2
4602  3
4603  3
4604  4
4605  2
4606  3
4607  0
4608  2
4609  0
4610  3
4611  3
4612  2
4613  0
4614  1
4615  6
4616  2
4617  1
4618  2
4619  2
4620  1
4621  1
4622  1
4623  2
4624  1
4625  0
4626  0
4627  2
4628  2
4629  1
4630  1
4631  0
4632  3
4633  0
4634  2
4635  1
4636  3
4637  1
4638  4
4639  0
4640  0
4641  0
4642  3
4643  2
4644  0
4645  2
4646  2
4647  2
4648  1
4649  3
4650  0
4651  2
4652  0
4653  1
4654  2
4655  3
4656  3
4657  2
4658  0
4659  0
4660  2
4661  0
4662  1
4663  0
4664  1
4665  1
4666  1
4667  3
4668  3
4669  0
4670  1
4671  0
4672  4
4673  1
4674  1
4675  3
4676  0
4677  2
4678  4
4679  0
4680  1
4681  1
4682  3
4683  5
4684  4
4685  1
4686  1
4687  0
4688  4
4689  1
4690  3
4691  1
4692  3
4693  4
4694  3
4695  0
4696  0
4697  1
4698  4
4699  0
4700  1
4701  3
4702  2
4703  0
4704  0
4705  2
4706  0
4707  2
4708  2
4709  3
4710  3
4711  1
4712  1
4713  1
4714  2
4715  2
4716  0
4717  0
4718  1
4719  1
4720  3
4721  2
4722  0
4723  1
4724  2
4725  0
4726  0
4727  3
4728  4
4729  1
4730  4
4731  2
4732  2
4733  4
4734  1
4735  1
4736  1
4737  3
4738  2
4739  3
4740  1
4741  1
4742  2
4743  1
4744  1
4745  8
4746  1
4747  2
4748  5
4749  6
4750  6
4751  6
4752  4
4753  3
4754  6
4755  8
4756  7
4757  1
4758  7
4759  10
4760  3
4761  6
4762  9
4763  2
4764  8
4765  10
4766  10
4767  13
4768  9
4769  5
4770  9
4771  12
4772  11
4773  8
4774  13
4775  9
4776  8
4777  9
4778  20
4779  9
4780  11
4781  6
4782  13
4783  19
4784  9
4785  15
4786  9
4787  6
4788  10
4789  8
4790  6
4791  14
4792  8
4793  8
4794  10
4795  10
4796  8
4797  4
4798  8
4799  1
4800  15
4801  6
4802  9
4803  6
4804  5
4805  0
4806  5
4807  6
4808  1
4809  3
4810  1
4811  2
4812  3
4813  7
4814  5
4815  2
4816  3
4817  2
4818  1
4819  5
4820  2
4821  6
4822  3
4823  1
4824  1
4825  3
4826  6
4827  4
4828  1
4829  6
4830  3
4831  1
4832  3
4833  1
4834  2
4835  3
4836  2
4837  2
4838  3
4839  3
4840  1
4841  2
4842  5
4843  4
4844  2
4845  3
4846  6
4847  2
4848  3
4849  3
4850  3
4851  2
4852  4
4853  2
4854  2
4855  1
4856  1
4857  3
4858  2
4859  2
4860  5
4861  3
4862  3
4863  7
4864  2
4865  1
4866  0
4867  2
4868  2
4869  0
4870  2
4871  3
4872  2
4873  1
4874  4
4875  2
4876  2
4877  9
4878  3
4879  2
4880  6
4881  8
4882  5
4883  5
4884  8
4885  7
4886  1
4887  4
4888  9
4889  4
4890  5
4891  9
4892  5
4893  2
4894  3
4895  7
4896  5
4897  9
4898  5
4899  5
4900  16
4901  5
4902  6
4903  11
4904  10
4905  9
4906  10
4907  5
4908  7
4909  14
4910  15
4911  14
4912  16
4913  17
4914  23
4915  13
4916  19
4917  23
4918  29
4919  19
4920  29
4921  37
4922  37
4923  45
4924  44
4925  43
4926  34
4927  39
4928  58
4929  63
4930  55
4931  66
4932  69
4933  68
4934  69
4935  87
4936  86
4937  106
4938  99
4939  105
4940  113
4941  112
4942  125
4943  105
4944  107
4945  126
4946  120
4947  112
4948  139
4949  134
4950  115
4951  147
4952  141
4953  114
4954  115
4955  128
4956  124
4957  118
4958  116
4959  134
4960  110
4961  101
4962  107
4963  110
4964  99
4965  91
4966  86
4967  82
4968  70
4969  60
4970  74
4971  70
4972  59
4973  57
4974  35
4975  47
4976  39
4977  42
4978  29
4979  33
4980  38
4981  31
4982  23
4983  14
4984  20
4985  26
4986  12
4987  14
4988  10
4989  13
4990  5
4991  7
4992  12
4993  8
4994  9
4995  7
4996  7
4997  6
4998  6
4999  6
5000  4
5001  5
5002  4
5003  6
5004  7
5005  6
5006  4
5007  3
5008  6
5009  1
5010  4
5011  4
5012  2
5013  5
5014  4
5015  5
5016  1
5017  3
5018  2
5019  5
5020  1
5021  5
5022  0
5023  4
5024  1
5025  3
5026  1
5027  2
5028  2
5029  3
5030  0
5031  2
5032  4
5033  1
5034  1
5035  0
5036  3
5037  2
5038  0
5039  2
5040  1
5041  2
5042  1
5043  1
5044  1
5045  1
5046  0
5047  1
5048  0
5049  2
5050  0
5051  1
5052  1
5053  1
5054  1
5055  3
5056  0
5057  1
5058  0
5059  0
5060  0
5061  2
5062  0
5063  0
5064  0
5065  0
5066  2
5067  0
5068  1
5069  0
5070  3
5071  1
5072  2
5073  0
5074  0
5075  1
5076  0
5077  0
5078  1
5079  1
5080  0
5081  0
5082  0
5083  1
5084  0
5085  1
5086  0
5087  0
5088  1
5089  0
5090  0
5091  1
5092  1
5093  0
5094  1
5095  3
5096  1
5097  1
5098  1
5099  0
5100  1
5101  0
5102  0
5103  2
5104  0
5105  0
5106  1
5107  1
5108  0
5109  0
5110  1
5111  0
5112  2
5113  1
5114  1
5115  1
5116  0
5117  0
5118  2
5119  1
5120  1
5121  4
5122  0
5123  0
5124  0
5125  2
5126  2
5127  1
5128  0
5129  1
5130  0
5131  0
5132  0
5133  1
5134  2
5135  0
5136  2
5137  1
5138  2
5139  0
5140  1
5141  1
5142  0
5143  1
5144  2
5145  1
5146  2
5147  0
5148  0
5149  0
5150  0
5151  0
5152  2
5153  5
5154  2
5155  3
5156  1
5157  0
5158  2
5159  0
5160  1
5161  2
5162  2
5163  3
5164  0
5165  5
5166  1
5167  2
5168  2
5169  2
5170  0
5171  0
5172  2
5173  3
5174  2
5175  0
5176  0
5177  2
5178  0
5179  1
5180  1
5181  2
5182  1
5183  1
5184  4
5185  2
5186  1
5187  2
5188  0
5189  0
5190  2
5191  1
5192  0
5193  1
5194  1
5195  1
5196  4
5197  0
5198  3
5199  0
5200  0
5201  1
5202  1
5203  0
5204  1
5205  2
5206  1
5207  1
5208  0
5209  1
5210  2
5211  3
5212  1
5213  1
5214  2
5215  1
5216  1
5217  1
5218  0
5219  0
5220  2
5221  0
5222  2
5223  1
5224  2
5225  1
5226  2
5227  1
5228  0
5229  0
5230  1
5231  2
5232  0
5233  2
5234  2
5235  1
5236  0
5237  3
5238  1
5239  0
5240  1
5241  0
5242  4
5243  0
5244  1
5245  0
5246  4
5247  2
5248  2
5249  0
5250  0
5251  0
5252  2
5253  2
5254  0
5255  0
5256  1
5257  0
5258  2
5259  1
5260  1
5261  2
5262  0
5263  5
5264  1
5265  0
5266  1
5267  3
5268  1
5269  2
5270  0
5271  1
5272  2
5273  2
5274  1
5275  0
5276  2
5277  0
5278  0
5279  1
5280  2
5281  2
5282  1
5283  0
5284  1
5285  1
5286  1
5287  2
5288  1
5289  1
5290  1
5291  2
5292  1
5293  1
5294  1
5295  0
5296  0
5297  0
5298  2
5299  1
5300  0
5301  2
5302  5
5303  0
5304  0
5305  1
5306  2
5307  0
5308  1
5309  1
5310  2
5311  0
5312  0
5313  2
5314  4
5315  0
5316  1
5317  3
5318  2
5319  4
5320  2
5321  1
5322  3
5323  1
5324  0
5325  0
5326  2
5327  0
5328  1
5329  2
5330  1
5331  0
5332  1
5333  2
5334  2
5335  2
5336  0
5337  4
5338  1
5339  0
5340  3
5341  2
5342  2
5343  1
5344  0
5345  2
5346  5
5347  3
5348  0
5349  1
5350  3
5351  4
5352  0
5353  2
5354  1
5355  1
5356  3
5357  2
5358  6
5359  1
5360  0
5361  3
5362  6
5363  3
5364  2
5365  5
5366  3
5367  3
5368  2
5369  3
5370  4
5371  5
5372  4
5373  5
5374  0
5375  3
5376  6
5377  3
5378  3
5379  3
5380  3
5381  6
5382  3
5383  2
5384  1
5385  5
5386  3
5387  9
5388  4
5389  6
5390  6
5391  3
5392  3
5393  4
5394  5
5395  4
5396  7
5397  1
5398  8
5399  7
5400  7
5401  11
5402  6
5403  11
5404  9
5405  12
5406  9
5407  12
5408  14
5409  10
5410  10
5411  15
5412  17
5413  12
5414  21
5415  15
5416  17
5417  23
5418  16
5419  14
5420  27
5421  17
5422  20
5423  23
5424  15
5425  21
5426  19
5427  17
5428  17
5429  19
5430  26
5431  26
5432  20
5433  33
5434  32
5435  32
5436  22
5437  28
5438  28
5439  25
5440  31
5441  23
5442  29
5443  27
5444  32
5445  31
5446  27
5447  25
5448  24
5449  31
5450  24
5451  41
5452  27
5453  29
5454  18
5455  24
5456  24
5457  20
5458  20
5459  18
5460  24
5461  20
5462  18
5463  23
5464  14
5465  10
5466  15
5467  13
5468  10
5469  14
5470  11
5471  11
5472  9
5473  13
5474  8
5475  3
5476  10
5477  5
5478  4
5479  7
5480  3
5481  4
5482  7
5483  10
5484  3
5485  2
5486  1
5487  3
5488  1
5489  1
5490  6
5491  6
5492  1
5493  2
5494  2
5495  1
5496  2
5497  1
5498  4
5499  2
5500  1
5501  1
5502  0
5503  2
5504  1
5505  3
5506  2
5507  3
5508  0
5509  5
5510  4
5511  2
5512  4
5513  4
5514  2
5515  1
5516  2
5517  4
5518  1
5519  2
5520  2
5521  2
5522  4
5523  5
5524  2
5525  3
5526  1
5527  2
5528  1
5529  1
5530  6
5531  1
5532  1
5533  1
5534  3
5535  4
5536  5
5537  6
5538  3
5539  2
5540  6
5541  4
5542  5
5543  3
5544  5
5545  5
5546  4
5547  2
5548  1
5549  6
5550  6
5551  3
5552  4
5553  5
5554  4
5555  5
5556  5
5557  5
5558  5
5559  4
5560  11
5561  10
5562  5
5563  4
5564  11
5565  7
5566  5
5567  6
5568  8
5569  9
5570  7
5571  14
5572  13
5573  13
5574  10
5575  17
5576  15
5577  16
5578  16
5579  13
5580  29
5581  18
5582  11
5583  25
5584  23
5585  21
5586  30
5587  37
5588  30
5589  39
5590  36
5591  38
5592  43
5593  49
5594  50
5595  54
5596  55
5597  57
5598  56
5599  77
5600  89
5601  84
5602  74
5603  80
5604  85
5605  86
5606  98
5607  86
5608  108
5609  93
5610  116
5611  119
5612  136
5613  96
5614  117
5615  106
5616  128
5617  122
5618  123
5619  105
5620  114
5621  101
5622  119
5623  120
5624  128
5625  122
5626  91
5627  120
5628  92
5629  106
5630  94
5631  90
5632  82
5633  86
5634  67
5635  68
5636  79
5637  75
5638  58
5639  54
5640  54
5641  51
5642  44
5643  48
5644  35
5645  22
5646  22
5647  27
5648  25
5649  18
5650  24
5651  16
5652  10
5653  12
5654  5
5655  9
5656  9
5657  9
5658  6
5659  3
5660  5
5661  4
5662  6
5663  9
5664  5
5665  4
5666  6
5667  3
5668  2
5669  4
5670  4
5671  2
5672  3
5673  4
5674  6
5675  1
5676  1
5677  2
5678  1
5679  1
5680  1
5681  2
5682  1
5683  1
5684  2
5685  2
5686  3
5687  0
5688  3
5689  3
5690  2
5691  2
5692  3
5693  0
5694  1
5695  1
5696  0
5697  0
5698  1
5699  0
5700  1
5701  5
5702  0
5703  0
5704  1
5705  2
5706  0
5707  0
5708  1
5709  3
5710  1
5711  1
5712  0
5713  1
5714  4
5715  0
5716  0
5717  0
5718  2
5719  0
5720  0
5721  1
5722  0
5723  0
5724  1
5725  2
5726  1
5727  1
5728  0
5729  0
5730  1
5731  2
5732  2
5733  1
5734  1
5735  0
5736  0
5737  0
5738  2
5739  0
5740  0
5741  2
5742  1
5743  0
5744  0
5745  1
5746  0
5747  0
5748  2
5749  0
5750  0
5751  0
5752  2
5753  0
5754  0
5755  2
5756  0
5757  1
5758  2
5759  0
5760  1
5761  1
5762  0
5763  1
5764  0
5765  2
5766  2
5767  1
5768  0
5769  2
5770  1
5771  0
5772  0
5773  1
5774  3
5775  0
5776  0
5777  1
5778  2
5779  0
5780  1
5781  1
5782  0
5783  0
5784  1
5785  2
5786  0
5787  1
5788  0
5789  0
5790  0
5791  0
5792  3
5793  0
5794  0
5795  1
5796  3
5797  0
5798  2
5799  0
5800  0
5801  0
5802  0
5803  0
5804  1
5805  2
5806  1
5807  0
5808  0
5809  0
5810  0
5811  1
5812  0
5813  1
5814  1
5815  0
5816  1
5817  0
5818  0
5819  0
5820  0
5821  0
5822  1
5823  2
5824  1
5825  0
5826  2
5827  1
5828  4
5829  2
5830  0
5831  2
5832  1
5833  2
5834  1
5835  2
5836  1
5837  2
5838  0
5839  3
5840  1
5841  1
5842  0
5843  1
5844  0
5845  1
5846  0
5847  1
5848  3
5849  1
5850  1
5851  1
5852  2
5853  2
5854  0
5855  1
5856  0
5857  1
5858  1
5859  3
5860  1
5861  0
5862  1
5863  1
5864  0
5865  2
5866  0
5867  0
5868  1
5869  0
5870  1
5871  4
5872  1
5873  2
5874  3
5875  1
5876  2
5877  1
5878  3
5879  1
5880  1
5881  2
5882  1
5883  0
5884  4
5885  4
5886  2
5887  1
5888  3
5889  0
5890  2
5891  1
5892  1
5893  1
5894  1
5895  0
5896  2
5897  5
5898  1
5899  0
5900  2
5901  1
5902  2
5903  5
5904  2
5905  0
5906  1
5907  2
5908  1
5909  0
5910  0
5911  1
5912  0
5913  1
5914  0
5915  4
5916  1
5917  0
5918  3
5919  0
5920  1
5921  1
5922  0
5923  1
5924  3
5925  4
5926  0
5927  1
5928  3
5929  1
5930  1
5931  3
5932  2
5933  0
5934  2
5935  3
5936  2
5937  1
5938  2
5939  1
5940  3
5941  4
5942  1
5943  0
5944  0
5945  1
5946  2
5947  3
5948  0
5949  2
5950  1
5951  1
5952  0
5953  3
5954  4
5955  0
5956  1
5957  2
5958  0
5959  1
5960  1
5961  3
5962  0
5963  1
5964  1
5965  1
5966  0
5967  3
5968  4
5969  3
5970  3
5971  2
5972  0
5973  2
5974  0
5975  3
5976  2
5977  2
5978  1
5979  1
5980  0
5981  3
5982  2
5983  1
5984  3
5985  2
5986  4
5987  3
5988  2
5989  1
5990  0
5991  1
5992  1
5993  2
5994  5
5995  2
5996  2
5997  0
5998  2
5999  1
6000  2
6001  3
6002  3
6003  3
6004  1
6005  0
6006  3
6007  2
6008  4
6009  4
6010  0
6011  5
6012  2
6013  5
6014  1
6015  2
6016  4
6017  2
6018  3
6019  7
6020  1
6021  3
6022  4
6023  4
6024  2
6025  0
6026  0
6027  10
6028  3
6029  3
6030  5
6031  4
6032  6
6033  7
6034  7
6035  1
6036  6
6037  4
6038  1
6039  10
6040  13
6041  5
6042  12
6043  9
6044  8
6045  4
6046  7
6047  10
6048  13
6049  13
6050  9
6051  12
6052  11
6053  5
6054  11
6055  22
6056  18
6057  15
6058  10
6059  12
6060  14
6061  15
6062  22
6063  23
6064  18
6065  20
6066  32
6067  21
6068  26
6069  22
6070  46
6071  25
6072  36
6073  43
6074  48
6075  38
6076  43
6077  54
6078  48
6079  51
6080  58
6081  59
6082  53
6083  83
6084  64
6085  72
6086  65
6087  86
6088  77
6089  94
6090  96
6091  91
6092  99
6093  93
6094  113
6095  105
6096  116
6097  106
6098  105
6099  117
6100  98
6101  124
6102  123
6103  110
6104  116
6105  101
6106  119
6107  111
6108  113
6109  93
6110  111
6111  95
6112  94
6113  105
6114  80
6115  91
6116  75
6117  70
6118  68
6119  72
6120  68
6121  77
6122  59
6123  77
6124  43
6125  53
6126  41
6127  31
6128  42
6129  39
6130  33
6131  31
6132  24
6133  21
6134  21
6135  20
6136  20
6137  16
6138  21
6139  5
6140  9
6141  12
6142  12
6143  5
6144  11
6145  8
6146  6
6147  6
6148  7
6149  2
6150  8
6151  2
6152  2
6153  4
6154  4
6155  5
6156  4
6157  2
6158  2
6159  3
6160  1
6161  3
6162  0
6163  1
6164  4
6165  1
6166  1
6167  1
6168  1
6169  1
6170  0
6171  0
6172  0
6173  1
6174  0
6175  0
6176  2
6177  0
6178  2
6179  2
6180  3
6181  0
6182  1
6183  0
6184  0
6185  2
6186  1
6187  0
6188  0
6189  1
6190  0
6191  1
6192  0
6193  0
6194  0
6195  0
6196  0
6197  0
6198  0
6199  0
6200  1
6201  0
6202  0
6203  0
6204  0
6205  1
6206  0
6207  0
6208  0
6209  0
6210  1
6211  0
6212  0
6213  0
6214  0
6215  0
6216  1
6217  0
6218  0
6219  0
6220  0
6221  0
6222  0
6223  1
6224  0
6225  1
6226  0
6227  0
6228  0
6229  0
6230  0
6231  0
6232  1
6233  0
6234  0
6235  0
6236  1
6237  0
6238  0
6239  3
6240  0
6241  1
6242  0
6243  0
6244  0
6245  1
6246  0
6247  1
6248  0
6249  0
6250  0
6251  0
6252  0
6253  0
6254  0
6255  0
6256  0
6257  0
6258  1
6259  0
6260  1
6261  0
6262  2
6263  0
6264  1
6265  0
6266  0
6267  1
6268  0
6269  0
6270  0
6271  1
6272  0
6273  0
6274  0
6275  0
6276  0
6277  1
6278  0
6279  0
6280  0
6281  0
6282  0
6283  0
6284  0
6285  1
6286  0
6287  1
6288  0
6289  2
6290  0
6291  0
6292  0
6293  1
6294  0
6295  1
6296  1
6297  0
6298  0
6299  0
6300  0
6301  0
6302  0
6303  0
6304  1
6305  0
6306  0
6307  1
6308  0
6309  0
6310  0
6311  0
6312  0
6313  1
6314  1
6315  2
6316  0
6317  0
6318  1
6319  0
6320  0
6321  1
6322  0
6323  0
6324  0
6325  0
6326  0
6327  0
6328  0
6329  0
6330  0
6331  0
6332  0
6333  1
6334  0
6335  0
6336  0
6337  0
6338  0
6339  0
6340  0
6341  0
6342  0
6343  0
6344  0
6345  0
6346  1
6347  0
6348  1
6349  0
6350  0
6351  0
6352  0
6353  0
6354  0
6355  0
6356  0
6357  0
6358  1
6359  0
6360  0
6361  0
6362  0
6363  0
6364  0
6365  0
6366  0
6367  0
6368  0
6369  0
6370  0
6371  0
6372  0
6373  0
6374  0
6375  0
6376  0
6377  0
6378  0
6379  0
6380  0
6381  0
6382  0
6383  0
6384  0
6385  0
6386  0
6387  1
6388  0
6389  0
6390  1
6391  0
6392  0
6393  0
6394  0
6395  0
6396  0
6397  1
6398  1
6399  0
6400  1
6401  1
6402  1
6403  0
6404  1
6405  0
6406  0
6407  0
6408  0
6409  0
6410  0
6411  0
6412  1
6413  0
6414  0
6415  0
6416  1
6417  1
6418  0
6419  0
6420  0
6421  0
6422  2
6423  0
6424  1
6425  0
6426  1
6427  0
6428  0
6429  0
6430  0
6431  0
6432  0
6433  1
6434  0
6435  0
6436  0
6437  0
6438  0
6439  0
6440  0
6441  1
6442  1
6443  1
6444  0
6445  0
6446  0
6447  1
6448  0
6449  1
6450  0
6451  0
6452  0
6453  0
6454  0
6455  0
6456  0
6457  1
6458  0
6459  0
6460  0
6461  0
6462  0
6463  0
6464  0
6465  1
6466  0
6467  0
6468  0
6469  0
6470  0
6471  0
6472  1
6473  0
6474  0
6475  1
6476  0
6477  0
6478  1
6479  0
6480  0
6481  0
6482  0
6483  2
6484  0
6485  0
6486  0
6487  0
6488  0
6489  0
6490  0
6491  0
6492  0
6493  0
6494  0
6495  0
6496  0
6497  0
6498  0
6499  0
6500  0
6501  0
6502  1
6503  0
6504  1
6505  0
6506  0
6507  1
6508  0
6509  1
6510  0
6511  1
6512  0
6513  0
6514  0
6515  0
6516  2
6517  0
6518  0
6519  0
6520  0
6521  2
6522  0
6523  1
6524  0
6525  0
6526  1
6527  0
6528  0
6529  0
6530  0
6531  0
6532  1
6533  0
6534  0
6535  0
6536  0
6537  1
6538  0
6539  0
6540  0
6541  0
6542  0
6543  0
6544  0
6545  1
6546  0
6547  0
6548  0
6549  1
6550  0
6551  0
6552  0
6553  1
6554  0
6555  0
6556  1
6557  0
6558  0
6559  0
6560  0
6561  0
6562  0
6563  2
6564  0
6565  0
6566  0
6567  0
6568  0
6569  0
6570  0
6571  0
6572  1
6573  0
6574  0
6575  0
6576  0
6577  0
6578  0
6579  2
6580  0
6581  0
6582  1
6583  1
6584  0
6585  1
6586  1
6587  0
6588  0
6589  0
6590  1
6591  0
6592  1
6593  0
6594  0
6595  0
6596  0
6597  0
6598  0
6599  1
6600  0
6601  0
6602  0
6603  1
6604  0
6605  0
6606  1
6607  1
6608  0
6609  0
6610  0
6611  0
6612  1
6613  0
6614  2
6615  0
6616  0
6617  1
6618  0
6619  1
6620  0
6621  0
6622  1
6623  0
6624  0
6625  0
6626  0
6627  2
6628  0
6629  1
6630  0
6631  0
6632  0
6633  0
6634  0
6635  1
6636  1
6637  1
6638  0
6639  0
6640  1
6641  0
6642  1
6643  0
6644  0
6645  0
6646  0
6647  0
6648  0
6649  0
6650  1
6651  0
6652  0
6653  0
6654  0
6655  0
6656  0
6657  0
6658  0
6659  0
6660  0
6661  1
6662  0
6663  0
6664  0
6665  0
6666  0
6667  1
6668  0
6669  0
6670  0
6671  0
6672  0
6673  2
6674  0
6675  0
6676  0
6677  0
6678  0
6679  0
6680  1
6681  0
6682  0
6683  1
6684  1
6685  0
6686  2
6687  0
6688  0
6689  0
6690  2
6691  1
6692  0
6693  0
6694  0
6695  1
6696  0
6697  1
6698  0
6699  0
6700  0
6701  0
6702  0
6703  0
6704  0
6705  0
6706  1
6707  0
6708  0
6709  1
6710  1
6711  0
6712  1
6713  0
6714  1
6715  0
6716  0
6717  0
6718  0
6719  1
6720  0
6721  0
6722  0
6723  1
6724  0
6725  0
6726  0
6727  0
6728  0
6729  1
6730  0
6731  0
6732  1
6733  1
6734  0
6735  0
6736  1
6737  0
6738  0
6739  0
6740  0
6741  0
6742  0
6743  0
6744  0
6745  0
6746  0
6747  0
6748  1
6749  0
6750  0
6751  0
6752  0
6753  0
6754  0
6755  1
6756  0
6757  0
6758  0
6759  0
6760  0
6761  0
6762  0
6763  0
6764  0
6765  1
6766  0
6767  0
6768  0
6769  0
6770  0
6771  0
6772  1
6773  0
6774  0
6775  0
6776  0
6777  0
6778  1
6779  0
6780  0
6781  0
6782  1
6783  0
6784  0
6785  0
6786  0
6787  0
6788  0
6789  0
6790  0
6791  1
6792  0
6793  0
6794  0
6795  1
6796  0
6797  0
6798  0
6799  0
6800  0
6801  0
6802  1
6803  1
6804  0
6805  0
6806  0
6807  0
6808  0
6809  0
6810  0
6811  0
6812  0
6813  0
6814  1
6815  0
6816  1
6817  0
6818  0
6819  0
6820  0
6821  0
6822  0
6823  0
6824  0
6825  0
6826  0
6827  0
6828  0
6829  0
6830  0
6831  0
6832  0
6833  0
6834  0
6835  0
6836  0
6837  0
6838  1
6839  0
6840  0
6841  0
6842  0
6843  0
6844  0
6845  0
6846  0
6847  0
6848  0
6849  0
6850  2
6851  0
6852  0
6853  0
6854  0
6855  0
6856  0
6857  1
6858  0
6859  1
6860  0
6861  0
6862  0
6863  0
6864  0
6865  0
6866  1
6867  0
6868  0
6869  0
6870  0
6871  2
6872  1
6873  0
6874  2
6875  0
6876  0
6877  0
6878  0
6879  0
6880  1
6881  0
6882  0
6883  1
6884  0
6885  0
6886  0
6887  0
6888  1
6889  0
6890  0
6891  0
6892  0
6893  0
6894  0
6895  0
6896  0
6897  0
6898  0
6899  0
6900  0
6901  0
6902  0
6903  1
6904  1
6905  1
6906  0
6907  0
6908  0
6909  0
6910  0
6911  0
6912  0
6913  0
6914  1
6915  0
6916  0
6917  0
6918  0
6919  0
6920  0
6921  0
6922  1
6923  0
6924  1
6925  0
6926  1
6927  0
6928  0
6929  1
6930  2
6931  1
6932  0
6933  0
6934  1
6935  0
6936  0
6937  0
6938  0
6939  0
6940  1
6941  0
6942  0
6943  0
6944  0
6945  0
6946  1
6947  0
6948  0
6949  0
6950  0
6951  1
6952  0
6953  0
6954  0
6955  0
6956  0
6957  0
6958  0
6959  0
6960  0
6961  1
6962  1
6963  0
6964  0
6965  2
6966  0
6967  0
6968  1
6969  0
6970  2
6971  0
6972  0
6973  0
6974  1
6975  0
6976  0
6977  0
6978  0
6979  0
6980  0
6981  0
6982  0
6983  0
6984  1
6985  0
6986  1
6987  0
6988  0
6989  0
6990  0
6991  0
6992  0
6993  0
6994  0
6995  0
6996  0
6997  0
6998  0
6999  0
7000  0
7001  1
7002  0
7003  1
7004  1
7005  0
7006  0
7007  1
7008  0
7009  0
7010  0
7011  0
7012  2
7013  0
7014  0
7015  0
7016  0
7017  0
7018  0
7019  0
7020  0
7021  1
7022  1
7023  0
7024  0
7025  1
7026  0
7027  0
7028  0
7029  0
7030  0
7031  0
7032  0
7033  3
7034  0
7035  1
7036  0
7037  0
7038  0
7039  0
7040  2
7041  0
7042  0
7043  0
7044  0
7045  0
7046  1
7047  1
7048  1
7049  1
7050  0
7051  1
7052  0
7053  1
7054  0
7055  0
7056  0
7057  0
7058  0
7059  1
7060  0
7061  0
7062  1
7063  0
7064  0
7065  0
7066  0
7067  0
7068  0
7069  1
7070  0
7071  2
7072  1
7073  1
7074  0
7075  0
7076  1
7077  0
7078  0
7079  1
7080  0
7081  0
7082  0
7083  0
7084  0
7085  0
7086  2
7087  1
7088  0
7089  0
7090  0
7091  0
7092  0
7093  0
7094  0
7095  0
7096  2
7097  0
7098  1
7099  0
7100  1
7101  2
7102  0
7103  0
7104  0
7105  1
7106  0
7107  0
7108  0
7109  0
7110  0
7111  0
7112  1
7113  0
7114  1
7115  0
7116  0
7117  0
7118  0
7119  0
7120  1
7121  0
7122  1
7123  0
7124  1
7125  0
7126  0
7127  0
7128  0
7129  0
7130  0
7131  0
7132  1
7133  1
7134  2
7135  1
7136  0
7137  0
7138  0
7139  0
7140  1
7141  0
7142  1
7143  0
7144  1
7145  0
7146  0
7147  0
7148  0
7149  0
7150  0
7151  0
7152  1
7153  0
7154  1
7155  0
7156  1
7157  0
7158  1
7159  0
7160  1
7161  1
7162  0
7163  0
7164  1
7165  0
7166  0
7167  1
7168  0
7169  0
7170  0
7171  0
7172  2
7173  0
7174  0
7175  0
7176  0
7177  0
7178  0
7179  0
7180  0
7181  0
7182  1
7183  0
7184  0
7185  1
7186  3
7187  1
7188  1
7189  1
7190  0
7191  0
7192  1
7193  0
7194  1
7195  0
7196  0
7197  0
7198  2
7199  1
7200  1
7201  1
7202  3
7203  0
7204  2
7205  1
7206  0
7207  1
7208  0
7209  1
7210  4
7211  0
7212  1
7213  0
7214  0
7215  0
7216  0
7217  0
7218  1
7219  0
7220  0
7221  2
7222  1
7223  0
7224  0
7225  1
7226  0
7227  2
7228  0
7229  2
7230  0
7231  0
7232  0
7233  1
7234  1
7235  0
7236  2
7237  0
7238  0
7239  0
7240  0
7241  0
7242  0
7243  0
7244  0
7245  0
7246  1
7247  0
7248  2
7249  1
7250  0
7251  0
7252  0
7253  1
7254  1
7255  1
7256  0
7257  0
7258  0
7259  0
7260  0
7261  0
7262  0
7263  1
7264  1
7265  0
7266  0
7267  0
7268  0
7269  0
7270  0
7271  0
7272  0
7273  0
7274  0
7275  0
7276  0
7277  0
7278  0
7279  0
7280  0
7281  0
7282  0
7283  1
7284  3
7285  0
7286  0
7287  0
7288  1
7289  0
7290  2
7291  1
7292  3
7293  0
7294  0
7295  3
7296  0
7297  1
7298  0
7299  0
7300  2
7301  1
7302  1
7303  0
7304  2
7305  1
7306  2
7307  1
7308  0
7309  0
7310  0
7311  0
7312  2
7313  0
7314  0
7315  1
7316  0
7317  1
7318  1
7319  0
7320  0
7321  1
7322  1
7323  0
7324  0
7325  0
7326  1
7327  1
7328  1
7329  0
7330  0
7331  0
7332  2
7333  2
7334  2
7335  0
7336  1
7337  1
7338  1
7339  0
7340  1
7341  0
7342  0
7343  0
7344  0
7345  0
7346  1
7347  1
7348  2
7349  0
7350  1
7351  0
7352  0
7353  0
7354  1
7355  0
7356  1
7357  0
7358  0
7359  1
7360  1
7361  0
7362  1
7363  0
7364  1
7365  1
7366  1
7367  0
7368  1
7369  1
7370  2
7371  0
7372  0
7373  2
7374  1
7375  1
7376  0
7377  2
7378  1
7379  0
7380  0
7381  0
7382  0
7383  2
7384  0
7385  0
7386  1
7387  2
7388  4
7389  0
7390  2
7391  0
7392  2
7393  0
7394  1
7395  2
7396  1
7397  2
7398  0
7399  2
7400  2
7401  1
7402  1
7403  0
7404  0
7405  1
7406  0
7407  2
7408  2
7409  1
7410  0
7411  1
7412  1
7413  0
7414  3
7415  0
7416  2
7417  0
7418  1
7419  2
7420  0
7421  1
7422  3
7423  0
7424  2
7425  2
7426  1
7427  0
7428  0
7429  0
7430  0
7431  1
7432  1
7433  0
7434  0
7435  1
7436  0
7437  0
7438  1
7439  1
7440  0
7441  1
7442  0
7443  0
7444  3
7445  0
7446  1
7447  0
7448  2
7449  2
7450  1
7451  1
7452  1
7453  0
7454  1
7455  1
7456  0
7457  0
7458  1
7459  1
7460  0
7461  0
7462  1
7463  1
7464  1
7465  0
7466  2
7467  0
7468  1
7469  0
7470  0
7471  2
7472  1
7473  2
7474  0
7475  0
7476  1
7477  1
7478  0
7479  1
7480  0
7481  0
7482  0
7483  1
7484  0
7485  1
7486  0
7487  1
7488  1
7489  0
7490  0
7491  0
7492  1
7493  1
7494  0
7495  0
7496  1
7497  2
7498  0
7499  1
7500  1
7501  1
7502  0
7503  0
7504  3
7505  0
7506  1
7507  1
7508  1
7509  0
7510  0
7511  1
7512  1
7513  0
7514  0
7515  0
7516  0
7517  1
7518  0
7519  2
7520  0
7521  1
7522  0
7523  2
7524  0
7525  2
7526  0
7527  1
7528  0
7529  2
7530  0
7531  0
7532  1
7533  0
7534  0
7535  0
7536  0
7537  0
7538  3
7539  0
7540  0
7541  1
7542  0
7543  0
7544  2
7545  1
7546  1
7547  1
7548  1
7549  2
7550  0
7551  2
7552  1
7553  0
7554  1
7555  2
7556  1
7557  1
7558  0
7559  2
7560  1
7561  2
7562  3
7563  2
7564  0
7565  2
7566  1
7567  1
7568  1
7569  1
7570  2
7571  2
7572  3
7573  1
7574  1
7575  3
7576  0
7577  0
7578  0
7579  2
7580  4
7581  2
7582  4
7583  3
7584  1
7585  0
7586  1
7587  3
7588  0
7589  2
7590  2
7591  4
7592  3
7593  2
7594  4
7595  1
7596  0
7597  1
7598  3
7599  1
7600  5
7601  2
7602  2
7603  3
7604  2
7605  3
7606  4
7607  0
7608  3
7609  2
7610  3
7611  1
7612  4
7613  3
7614  1
7615  5
7616  4
7617  5
7618  1
7619  6
7620  5
7621  5
7622  3
7623  4
7624  4
7625  7
7626  4
7627  1
7628  3
7629  1
7630  8
7631  9
7632  4
7633  3
7634  8
7635  6
7636  4
7637  7
7638  9
7639  8
7640  7
7641  15
7642  11
7643  16
7644  10
7645  15
7646  13
7647  13
7648  7
7649  14
7650  11
7651  13
7652  15
7653  12
7654  14
7655  22
7656  21
7657  23
7658  28
7659  35
7660  32
7661  27
7662  30
7663  33
7664  51
7665  37
7666  34
7667  40
7668  51
7669  42
7670  57
7671  53
7672  54
7673  44
7674  59
7675  67
7676  62
7677  80
7678  56
7679  80
7680  92
7681  74
7682  92
7683  100
7684  94
7685  98
7686  85
7687  80
7688  104
7689  114
7690  110
7691  98
7692  109
7693  111
7694  111
7695  108
7696  92
7697  109
7698  115
7699  109
7700  92
7701  94
7702  85
7703  80
7704  89
7705  76
7706  94
7707  85
7708  67
7709  85
7710  65
7711  66
7712  75
7713  55
7714  51
7715  49
7716  47
7717  39
7718  35
7719  40
7720  30
7721  39
7722  21
7723  17
7724  16
7725  26
7726  21
7727  17
7728  22
7729  10
7730  14
7731  11
7732  7
7733  11
7734  10
7735  6
7736  3
7737  3
7738  1
7739  5
7740  3
7741  4
7742  6
7743  5
7744  3
7745  5
7746  2
7747  4
7748  3
7749  2
7750  3
7751  2
7752  1
7753  1
7754  1
7755  0
7756  1
7757  1
7758  1
7759  0
7760  1
7761  3
7762  2
7763  0
7764  0
7765  1
7766  1
7767  0
7768  0
7769  0
7770  0
7771  1
7772  0
7773  0
7774  2
7775  3
7776  0
7777  0
7778  0
7779  0
7780  0
7781  1
7782  0
7783  0
7784  0
7785  0
7786  1
7787  0
7788  0
7789  0
7790  0
7791  0
7792  0
7793  0
7794  0
7795  0
7796  0
7797  0
7798  0
7799  0
7800  0
7801  1
7802  0
7803  0
7804  0
7805  0
7806  0
7807  0
7808  0
7809  0
7810  1
7811  0
7812  0
7813  0
7814  0
7815  1
7816  0
7817  0
7818  0
7819  0
7820  0
7821  0
7822  0
7823  0
7824  0
7825  0
7826  0
7827  0
7828  0
7829  0
7830  0
7831  0
7832  0
7833  0
7834  0
7835  0
7836  0
7837  0
7838  0
7839  0
7840  0
7841  0
7842  0
7843  0
7844  0
7845  0
7846  0
7847  0
7848  0
7849  0
7850  0
7851  0
7852  0
7853  0
7854  0
7855  0
7856  0
7857  0
7858  0
7859  0
7860  0
7861  0
7862  1
7863  0
7864  0
7865  0
7866  0
7867  0
7868  0
7869  0
7870  0
7871  0
7872  0
7873  0
7874  0
7875  0
7876  0
7877  0
7878  1
7879  0
7880  0
7881  0
7882  0
7883  1
7884  0
7885  0
7886  0
7887  0
7888  0
7889  0
7890  0
7891  0
7892  0
7893  0
7894  0
7895  0
7896  0
7897  0
7898  0
7899  0
7900  1
7901  0
7902  0
7903  0
7904  0
7905  0
7906  0
7907  0
7908  0
7909  0
7910  0
7911  0
7912  0
7913  0
7914  0
7915  0
7916  0
7917  0
7918  0
7919  0
7920  0
7921  0
7922  0
7923  0
7924  0
7925  0
7926  0
7927  0
7928  0
7929  0
7930  0
7931  0
7932  0
7933  0
7934  0
7935  0
7936  0
7937  0
7938  0
7939  0
7940  0
7941  0
7942  0
7943  0
7944  0
7945  0
7946  0
7947  0
7948  0
7949  0
7950  0
7951  0
7952  0
7953  0
7954  0
7955  0
7956  0
7957  0
7958  0
7959  0
7960  0
7961  0
7962  0
7963  0
7964  0
7965  0
7966  0
7967  0
7968  0
7969  0
7970  0
7971  0
7972  0
7973  0
7974  0
7975  0
7976  0
7977  0
7978  0
7979  0
7980  0
7981  0
7982  0
7983  0
7984  0
7985  0
7986  0
7987  0
7988  0
7989  0
7990  0
7991  0
7992  0
7993  0
7994  0
7995  0
7996  0
7997  0
7998  0
7999  0
8000  0
8001  0
8002  0
8003  0
8004  0
8005  0
8006  0
8007  0
8008  0
8009  0
8010  0
8011  0
8012  0
8013  0
8014  0
8015  0
8016  0
8017  0
8018  0
8019  0
8020  0
8021  0
8022  0
8023  0
8024  0
8025  0
8026  0
8027  0
8028  0
8029  0
8030  0
8031  0
8032  0
8033  0
8034  0
8035  0
8036  0
8037  0
8038  0
8039  0
8040  0
8041  0
8042  0
8043  0
8044  0
8045  0
8046  0
8047  0
8048  0
8049  0
8050  0
8051  0
8052  0
8053  0
8054  0
8055  0
8056  0
8057  0
8058  0
8059  0
8060  0
8061  0
8062  0
8063  0
8064  0
8065  0
8066  0
8067  0
8068  0
8069  0
8070  0
8071  0
8072  0
8073  0
8074  0
8075  0
8076  0
8077  0
8078  0
8079  0
8080  0
8081  0
8082  0
8083  0
8084  0
8085  0
8086  0
8087  0
8088  0
8089  0
8090  0
8091  0
8092  0
8093  0
8094  0
8095  0
8096  0
8097  0
8098  0
8099  0
8100  0
8101  0
8102  0
8103  0
8104  0
8105  0
8106  0
8107  0
8108  0
8109  0
8110  0
8111  0
8112  0
8113  0
8114  0
8115  0
8116  0
8117  0
8118  0
8119  0
8120  0
8121  0
8122  0
8123  0
8124  0
8125  0
8126  0
8127  0
8128  0
8129  0
8130  0
8131  0
8132  0
8133  0
8134  0
8135  0
8136  0
8137  0
8138  0
8139  0
8140  0
8141  0
8142  0
8143  0
8144  0
8145  0
8146  0
8147  0
8148  0
8149  0
8150  0
8151  0
8152  0
8153  0
8154  0
8155  0
8156  0
8157  0
8158  0
8159  0
8160  0
8161  0
8162  0
8163  0
8164  0
8165  0
8166  0
8167  0
8168  0
8169  0
8170  0
8171  0
8172  0
8173  0
8174  0
8175  0
8176  0
8177  0
8178  0
8179  0
8180  0
8181  0
8182  0
8183  0
8184  0
8185  0
8186  0
8187  0
8188  0
8189  0
8190  0
8191  0
