0  2397
1  0
2  0
3  0
4  0
5  0
6  0
7  0
8  0
9  0
10  0
11  0
12  0
13  0
14  0
15  0
16  0
17  0
18  0
19  0
20  0
21  0
22  0
23  0
24  0
25  0
26  0
27  0
28  0
29  0
30  0
31  0
32  0
33  0
34  0
35  0
36  0
37  0
38  0
39  0
40  0
41  0
42  0
43  0
44  0
45  0
46  0
47  0
48  0
49  0
50  0
51  0
52  0
53  0
54  0
55  0
56  0
57  0
58  0
59  0
60  0
61  0
62  0
63  0
64  0
65  0
66  0
67  0
68  0
69  0
70  0
71  0
72  0
73  0
74  0
75  0
76  0
77  0
78  0
79  0
80  0
81  0
82  0
83  0
84  0
85  0
86  0
87  0
88  0
89  0
90  0
91  0
92  0
93  0
94  0
95  0
96  0
97  0
98  0
99  0
100  0
101  0
102  0
103  0
104  0
105  0
106  0
107  0
108  0
109  0
110  0
111  0
112  0
113  0
114  0
115  0
116  0
117  0
118  0
119  0
120  0
121  0
122  0
123  0
124  0
125  0
126  0
127  0
128  0
129  0
130  0
131  0
132  0
133  0
134  0
135  0
136  0
137  0
138  0
139  0
140  0
141  0
142  0
143  0
144  0
145  0
146  0
147  0
148  0
149  0
150  0
151  0
152  0
153  0
154  0
155  0
156  0
157  0
158  0
159  0
160  0
161  0
162  0
163  0
164  0
165  0
166  0
167  0
168  0
169  0
170  0
171  0
172  0
173  0
174  0
175  0
176  0
177  0
178  0
179  0
180  0
181  0
182  0
183  0
184  0
185  0
186  0
187  0
188  0
189  0
190  0
191  0
192  0
193  0
194  0
195  0
196  0
197  0
198  0
199  0
200  0
201  0
202  0
203  0
204  0
205  0
206  0
207  0
208  0
209  0
210  0
211  0
212  0
213  0
214  0
215  0
216  0
217  0
218  0
219  0
220  0
221  0
222  0
223  0
224  0
225  0
226  0
227  0
228  0
229  0
230  0
231  0
232  0
233  0
234  0
235  0
236  0
237  0
238  0
239  0
240  0
241  0
242  0
243  0
244  0
245  0
246  0
247  0
248  0
249  0
250  0
251  0
252  0
253  0
254  0
255  0
256  0
257  0
258  0
259  0
260  0
261  0
262  0
263  0
264  0
265  0
266  0
267  0
268  0
269  0
270  0
271  0
272  0
273  0
274  0
275  0
276  0
277  0
278  0
279  0
280  0
281  0
282  0
283  0
284  0
285  0
286  0
287  0
288  0
289  0
290  0
291  0
292  0
293  0
294  0
295  0
296  0
297  0
298  0
299  0
300  0
301  0
302  0
303  0
304  0
305  0
306  0
307  0
308  0
309  0
310  0
311  0
312  0
313  0
314  0
315  0
316  0
317  0
318  0
319  0
320  0
321  0
322  0
323  0
324  0
325  0
326  0
327  0
328  0
329  0
330  0
331  0
332  0
333  0
334  0
335  0
336  0
337  0
338  0
339  0
340  0
341  0
342  0
343  0
344  0
345  0
346  0
347  0
348  0
349  0
350  0
351  0
352  0
353  0
354  0
355  0
356  0
357  0
358  0
359  0
360  0
361  0
362  0
363  0
364  0
365  0
366  0
367  0
368  0
369  0
370  0
371  0
372  0
373  0
374  0
375  0
376  0
377  0
378  0
379  0
380  0
381  0
382  0
383  0
384  0
385  0
386  0
387  0
388  0
389  0
390  0
391  0
392  0
393  0
394  0
395  0
396  0
397  0
398  0
399  0
400  0
401  0
402  0
403  0
404  0
405  0
406  0
407  0
408  0
409  0
410  0
411  0
412  0
413  0
414  0
415  0
416  0
417  0
418  0
419  0
420  0
421  0
422  0
423  0
424  0
425  0
426  0
427  0
428  0
429  0
430  0
431  0
432  0
433  0
434  0
435  0
436  0
437  0
438  0
439  0
440  0
441  0
442  0
443  0
444  0
445  0
446  0
447  0
448  0
449  0
450  0
451  0
452  0
453  0
454  0
455  0
456  0
457  0
458  0
459  0
460  0
461  0
462  0
463  0
464  0
465  0
466  0
467  0
468  0
469  0
470  0
471  0
472  0
473  0
474  0
475  0
476  0
477  0
478  0
479  0
480  0
481  0
482  0
483  0
484  0
485  0
486  0
487  0
488  0
489  0
490  0
491  0
492  0
493  0
494  0
495  0
496  0
497  0
498  0
499  0
500  0
501  0
502  0
503  0
504  0
505  0
506  0
507  0
508  0
509  0
510  0
511  0
512  0
513  0
514  0
515  0
516  0
517  0
518  0
519  0
520  0
521  0
522  0
523  0
524  0
525  0
526  0
527  0
528  0
529  0
530  0
531  0
532  0
533  0
534  0
535  0
536  0
537  0
538  0
539  0
540  0
541  0
542  0
543  0
544  0
545  0
546  0
547  0
548  0
549  0
550  0
551  0
552  0
553  0
554  0
555  0
556  0
557  0
558  0
559  0
560  0
561  0
562  0
563  0
564  0
565  0
566  0
567  2
568  1
569  3
570  11
571  21
572  50
573  208
574  385
575  324
576  320
577  275
578  293
579  260
580  302
581  268
582  255
583  258
584  267
585  249
586  224
587  218
588  226
589  216
590  204
591  200
592  223
593  188
594  220
595  197
596  190
597  203
598  185
599  180
600  207
601  215
602  185
603  197
604  180
605  179
606  176
607  182
608  178
609  195
610  168
611  157
612  170
613  186
614  166
615  145
616  170
617  181
618  169
619  189
620  166
621  176
622  177
623  180
624  166
625  152
626  149
627  154
628  176
629  164
630  173
631  153
632  161
633  155
634  133
635  136
636  145
637  155
638  124
639  119
640  136
641  147
642  144
643  137
644  137
645  141
646  119
647  128
648  121
649  112
650  129
651  121
652  113
653  123
654  121
655  112
656  105
657  110
658  124
659  110
660  106
661  132
662  108
663  96
664  121
665  118
666  97
667  114
668  127
669  104
670  109
671  97
672  115
673  91
674  110
675  97
676  117
677  91
678  114
679  102
680  92
681  93
682  115
683  97
684  123
685  92
686  110
687  89
688  96
689  87
690  100
691  90
692  85
693  90
694  88
695  93
696  72
697  74
698  93
699  72
700  78
701  89
702  82
703  80
704  88
705  78
706  87
707  71
708  72
709  92
710  80
711  63
712  70
713  73
714  76
715  89
716  86
717  60
718  70
719  88
720  79
721  77
722  69
723  64
724  72
725  76
726  73
727  76
728  69
729  87
730  69
731  72
732  70
733  65
734  69
735  60
736  62
737  77
738  73
739  61
740  66
741  66
742  66
743  56
744  65
745  67
746  60
747  52
748  70
749  62
750  54
751  67
752  63
753  65
754  64
755  64
756  66
757  83
758  59
759  52
760  52
761  57
762  66
763  49
764  57
765  62
766  44
767  62
768  59
769  69
770  64
771  63
772  54
773  42
774  59
775  47
776  52
777  61
778  63
779  57
780  64
781  55
782  57
783  47
784  53
785  38
786  54
787  52
788  51
789  52
790  57
791  45
792  54
793  51
794  64
795  48
796  50
797  50
798  52
799  38
800  43
801  36
802  46
803  41
804  39
805  41
806  53
807  42
808  50
809  46
810  47
811  42
812  53
813  55
814  41
815  43
816  38
817  33
818  37
819  40
820  45
821  37
822  38
823  42
824  52
825  38
826  37
827  46
828  40
829  33
830  33
831  51
832  50
833  28
834  34
835  49
836  37
837  43
838  39
839  46
840  43
841  43
842  50
843  35
844  32
845  44
846  39
847  35
848  34
849  28
850  35
851  50
852  29
853  33
854  39
855  32
856  40
857  36
858  37
859  27
860  35
861  34
862  36
863  31
864  33
865  23
866  31
867  36
868  25
869  25
870  35
871  33
872  33
873  32
874  37
875  23
876  26
877  34
878  23
879  33
880  33
881  27
882  28
883  29
884  39
885  33
886  22
887  28
888  31
889  33
890  35
891  22
892  35
893  32
894  28
895  31
896  35
897  32
898  19
899  28
900  28
901  26
902  37
903  24
904  25
905  26
906  27
907  29
908  13
909  22
910  23
911  27
912  16
913  19
914  20
915  28
916  24
917  26
918  22
919  17
920  22
921  17
922  25
923  20
924  31
925  18
926  18
927  23
928  16
929  33
930  28
931  23
932  20
933  19
934  18
935  15
936  18
937  27
938  20
939  23
940  18
941  14
942  25
943  18
944  20
945  20
946  17
947  23
948  20
949  13
950  25
951  20
952  18
953  16
954  12
955  20
956  21
957  10
958  14
959  15
960  20
961  15
962  18
963  17
964  16
965  21
966  14
967  24
968  14
969  18
970  15
971  17
972  18
973  14
974  25
975  16
976  19
977  13
978  9
979  13
980  19
981  16
982  15
983  14
984  10
985  11
986  13
987  17
988  8
989  16
990  16
991  17
992  16
993  8
994  21
995  19
996  14
997  22
998  15
999  22
1000  16
1001  19
1002  11
1003  10
1004  10
1005  15
1006  8
1007  19
1008  16
1009  6
1010  19
1011  11
1012  13
1013  15
1014  2
1015  15
1016  9
1017  14
1018  12
1019  15
1020  14
1021  8
1022  10
1023  11
1024  11
1025  12
1026  12
1027  12
1028  11
1029  13
1030  9
1031  7
1032  21
1033  15
1034  16
1035  13
1036  14
1037  25
1038  9
1039  12
1040  7
1041  15
1042  15
1043  16
1044  17
1045  14
1046  17
1047  13
1048  9
1049  9
1050  12
1051  14
1052  8
1053  13
1054  4
1055  10
1056  11
1057  4
1058  10
1059  11
1060  12
1061  7
1062  7
1063  7
1064  8
1065  6
1066  14
1067  5
1068  8
1069  7
1070  10
1071  6
1072  10
1073  6
1074  10
1075  7
1076  4
1077  9
1078  8
1079  14
1080  6
1081  3
1082  8
1083  9
1084  7
1085  7
1086  5
1087  16
1088  6
1089  14
1090  6
1091  1
1092  6
1093  11
1094  10
1095  7
1096  9
1097  7
1098  10
1099  8
1100  2
1101  9
1102  3
1103  11
1104  9
1105  7
1106  6
1107  5
1108  8
1109  12
1110  7
1111  5
1112  3
1113  12
1114  6
1115  8
1116  12
1117  4
1118  4
1119  7
1120  8
1121  5
1122  10
1123  6
1124  7
1125  5
1126  5
1127  7
1128  7
1129  8
1130  3
1131  4
1132  12
1133  3
1134  6
1135  6
1136  7
1137  8
1138  3
1139  5
1140  6
1141  6
1142  5
1143  5
1144  10
1145  5
1146  5
1147  6
1148  12
1149  4
1150  9
1151  7
1152  8
1153  8
1154  10
1155  4
1156  7
1157  10
1158  4
1159  6
1160  7
1161  4
1162  5
1163  7
1164  6
1165  7
1166  8
1167  8
1168  9
1169  3
1170  3
1171  6
1172  11
1173  2
1174  8
1175  3
1176  7
1177  2
1178  5
1179  11
1180  3
1181  5
1182  6
1183  7
1184  7
1185  3
1186  9
1187  8
1188  5
1189  8
1190  4
1191  6
1192  6
1193  1
1194  6
1195  4
1196  5
1197  2
1198  8
1199  2
1200  2
1201  6
1202  6
1203  0
1204  7
1205  3
1206  3
1207  4
1208  3
1209  7
1210  5
1211  5
1212  5
1213  5
1214  5
1215  5
1216  7
1217  9
1218  5
1219  6
1220  5
1221  6
1222  5
1223  9
1224  9
1225  3
1226  8
1227  2
1228  6
1229  10
1230  6
1231  6
1232  2
1233  5
1234  7
1235  5
1236  6
1237  2
1238  6
1239  6
1240  6
1241  6
1242  4
1243  4
1244  6
1245  4
1246  5
1247  3
1248  2
1249  8
1250  3
1251  8
1252  4
1253  2
1254  1
1255  5
1256  7
1257  4
1258  4
1259  3
1260  2
1261  2
1262  3
1263  5
1264  4
1265  5
1266  8
1267  3
1268  5
1269  3
1270  1
1271  6
1272  7
1273  4
1274  7
1275  2
1276  2
1277  4
1278  1
1279  6
1280  6
1281  0
1282  4
1283  3
1284  5
1285  2
1286  4
1287  5
1288  5
1289  6
1290  7
1291  0
1292  5
1293  6
1294  2
1295  4
1296  6
1297  3
1298  2
1299  4
1300  6
1301  4
1302  6
1303  2
1304  5
1305  6
1306  0
1307  9
1308  5
1309  2
1310  2
1311  4
1312  6
1313  4
1314  6
1315  3
1316  6
1317  3
1318  4
1319  4
1320  2
1321  10
1322  5
1323  5
1324  8
1325  3
1326  3
1327  3
1328  7
1329  1
1330  1
1331  4
1332  0
1333  0
1334  1
1335  4
1336  2
1337  3
1338  5
1339  3
1340  6
1341  2
1342  3
1343  4
1344  3
1345  5
1346  2
1347  2
1348  5
1349  5
1350  1
1351  2
1352  1
1353  2
1354  3
1355  3
1356  8
1357  2
1358  0
1359  3
1360  4
1361  6
1362  4
1363  4
1364  4
1365  7
1366  5
1367  3
1368  3
1369  4
1370  3
1371  4
1372  3
1373  5
1374  3
1375  6
1376  3
1377  9
1378  6
1379  6
1380  2
1381  3
1382  4
1383  4
1384  2
1385  2
1386  2
1387  6
1388  2
1389  3
1390  3
1391  2
1392  5
1393  3
1394  2
1395  3
1396  6
1397  5
1398  3
1399  2
1400  1
1401  2
1402  4
1403  5
1404  1
1405  5
1406  4
1407  5
1408  5
1409  4
1410  0
1411  6
1412  4
1413  3
1414  5
1415  3
1416  0
1417  0
1418  1
1419  1
1420  6
1421  2
1422  1
1423  1
1424  5
1425  5
1426  3
1427  1
1428  1
1429  7
1430  1
1431  2
1432  5
1433  2
1434  3
1435  0
1436  4
1437  1
1438  1
1439  3
1440  6
1441  3
1442  1
1443  6
1444  2
1445  2
1446  6
1447  3
1448  1
1449  8
1450  5
1451  2
1452  4
1453  0
1454  2
1455  3
1456  1
1457  1
1458  4
1459  4
1460  2
1461  1
1462  1
1463  3
1464  1
1465  2
1466  3
1467  2
1468  2
1469  4
1470  6
1471  4
1472  2
1473  7
1474  4
1475  3
1476  5
1477  6
1478  2
1479  1
1480  3
1481  1
1482  1
1483  2
1484  2
1485  2
1486  5
1487  3
1488  3
1489  3
1490  2
1491  2
1492  4
1493  5
1494  2
1495  1
1496  0
1497  6
1498  4
1499  2
1500  4
1501  3
1502  0
1503  1
1504  5
1505  4
1506  7
1507  6
1508  4
1509  5
1510  4
1511  5
1512  3
1513  3
1514  3
1515  10
1516  3
1517  5
1518  4
1519  3
1520  2
1521  4
1522  2
1523  3
1524  5
1525  7
1526  3
1527  2
1528  4
1529  6
1530  1
1531  3
1532  2
1533  4
1534  2
1535  1
1536  3
1537  8
1538  5
1539  4
1540  3
1541  4
1542  1
1543  1
1544  3
1545  2
1546  1
1547  2
1548  1
1549  3
1550  1
1551  2
1552  4
1553  4
1554  2
1555  0
1556  3
1557  3
1558  8
1559  1
1560  1
1561  6
1562  6
1563  2
1564  2
1565  0
1566  2
1567  5
1568  4
1569  3
1570  1
1571  2
1572  2
1573  1
1574  2
1575  1
1576  1
1577  3
1578  3
1579  1
1580  4
1581  5
1582  1
1583  2
1584  2
1585  0
1586  3
1587  3
1588  3
1589  1
1590  0
1591  1
1592  0
1593  2
1594  1
1595  3
1596  3
1597  1
1598  0
1599  3
1600  3
1601  1
1602  4
1603  1
1604  3
1605  3
1606  4
1607  2
1608  1
1609  4
1610  1
1611  3
1612  2
1613  0
1614  2
1615  2
1616  1
1617  1
1618  2
1619  4
1620  2
1621  4
1622  1
1623  3
1624  2
1625  3
1626  3
1627  1
1628  2
1629  1
1630  1
1631  2
1632  5
1633  7
1634  4
1635  1
1636  6
1637  3
1638  5
1639  1
1640  4
1641  5
1642  7
1643  3
1644  1
1645  0
1646  2
1647  2
1648  5
1649  6
1650  6
1651  3
1652  7
1653  2
1654  1
1655  7
1656  1
1657  3
1658  1
1659  2
1660  4
1661  1
1662  4
1663  2
1664  3
1665  3
1666  1
1667  2
1668  2
1669  3
1670  4
1671  2
1672  0
1673  2
1674  3
1675  4
1676  4
1677  2
1678  3
1679  1
1680  2
1681  2
1682  2
1683  2
1684  0
1685  2
1686  4
1687  3
1688  3
1689  1
1690  2
1691  3
1692  3
1693  2
1694  1
1695  2
1696  1
1697  0
1698  1
1699  6
1700  3
1701  2
1702  1
1703  4
1704  5
1705  2
1706  2
1707  0
1708  1
1709  4
1710  1
1711  0
1712  2
1713  2
1714  1
1715  3
1716  1
1717  2
1718  5
1719  2
1720  1
1721  1
1722  3
1723  1
1724  1
1725  0
1726  1
1727  3
1728  1
1729  3
1730  2
1731  2
1732  0
1733  1
1734  1
1735  5
1736  3
1737  7
1738  2
1739  2
1740  3
1741  4
1742  1
1743  1
1744  0
1745  2
1746  1
1747  0
1748  4
1749  2
1750  2
1751  1
1752  2
1753  2
1754  0
1755  1
1756  1
1757  4
1758  3
1759  0
1760  1
1761  4
1762  1
1763  0
1764  2
1765  2
1766  1
1767  1
1768  2
1769  4
1770  1
1771  1
1772  0
1773  3
1774  1
1775  1
1776  1
1777  1
1778  2
1779  4
1780  2
1781  2
1782  3
1783  1
1784  2
1785  0
1786  1
1787  1
1788  1
1789  2
1790  5
1791  2
1792  4
1793  2
1794  3
1795  4
1796  1
1797  1
1798  4
1799  2
1800  3
1801  6
1802  5
1803  1
1804  1
1805  1
1806  1
1807  2
1808  1
1809  7
1810  3
1811  1
1812  1
1813  4
1814  2
1815  1
1816  4
1817  1
1818  2
1819  3
1820  1
1821  0
1822  3
1823  2
1824  2
1825  2
1826  1
1827  1
1828  2
1829  1
1830  2
1831  2
1832  1
1833  2
1834  3
1835  3
1836  1
1837  1
1838  2
1839  5
1840  2
1841  1
1842  2
1843  0
1844  5
1845  0
1846  2
1847  0
1848  2
1849  0
1850  3
1851  2
1852  3
1853  3
1854  4
1855  4
1856  3
1857  4
1858  6
1859  1
1860  0
1861  1
1862  3
1863  1
1864  0
1865  1
1866  1
1867  1
1868  1
1869  2
1870  1
1871  0
1872  0
1873  3
1874  0
1875  1
1876  1
1877  1
1878  2
1879  5
1880  3
1881  3
1882  1
1883  3
1884  3
1885  4
1886  2
1887  1
1888  1
1889  4
1890  2
1891  1
1892  2
1893  1
1894  2
1895  0
1896  2
1897  1
1898  1
1899  2
1900  2
1901  1
1902  2
1903  2
1904  2
1905  2
1906  1
1907  2
1908  2
1909  1
1910  3
1911  2
1912  1
1913  1
1914  2
1915  0
1916  2
1917  2
1918  4
1919  1
1920  0
1921  0
1922  1
1923  0
1924  2
1925  3
1926  1
1927  1
1928  2
1929  1
1930  2
1931  3
1932  2
1933  2
1934  3
1935  0
1936  0
1937  1
1938  3
1939  2
1940  4
1941  3
1942  2
1943  1
1944  1
1945  3
1946  2
1947  0
1948  1
1949  3
1950  2
1951  2
1952  5
1953  1
1954  1
1955  1
1956  1
1957  4
1958  1
1959  3
1960  5
1961  0
1962  0
1963  1
1964  3
1965  2
1966  2
1967  0
1968  3
1969  2
1970  1
1971  4
1972  3
1973  1
1974  1
1975  2
1976  2
1977  5
1978  2
1979  2
1980  1
1981  2
1982  5
1983  2
1984  2
1985  0
1986  1
1987  1
1988  5
1989  1
1990  2
1991  1
1992  1
1993  2
1994  2
1995  2
1996  1
1997  3
1998  2
1999  1
2000  1
2001  0
2002  1
2003  2
2004  0
2005  5
2006  1
2007  6
2008  0
2009  2
2010  3
2011  2
2012  2
2013  2
2014  1
2015  1
2016  3
2017  3
2018  4
2019  6
2020  0
2021  2
2022  0
2023  0
2024  4
2025  3
2026  4
2027  9
2028  0
2029  4
2030  3
2031  0
2032  1
2033  5
2034  1
2035  1
2036  1
2037  5
2038  2
2039  0
2040  2
2041  0
2042  1
2043  0
2044  3
2045  0
2046  0
2047  1
2048  3
2049  3
2050  2
2051  5
2052  1
2053  2
2054  1
2055  2
2056  5
2057  5
2058  3
2059  2
2060  0
2061  2
2062  1
2063  1
2064  2
2065  3
2066  4
2067  2
2068  1
2069  0
2070  2
2071  3
2072  3
2073  2
2074  4
2075  2
2076  0
2077  4
2078  1
2079  1
2080  0
2081  3
2082  1
2083  1
2084  3
2085  1
2086  2
2087  4
2088  1
2089  2
2090  1
2091  1
2092  4
2093  0
2094  1
2095  0
2096  1
2097  1
2098  0
2099  0
2100  0
2101  0
2102  1
2103  2
2104  0
2105  1
2106  4
2107  1
2108  0
2109  1
2110  1
2111  1
2112  1
2113  3
2114  1
2115  2
2116  3
2117  2
2118  0
2119  1
2120  2
2121  2
2122  2
2123  6
2124  1
2125  0
2126  1
2127  0
2128  2
2129  2
2130  1
2131  3
2132  0
2133  1
2134  1
2135  1
2136  3
2137  2
2138  0
2139  1
2140  4
2141  2
2142  3
2143  2
2144  1
2145  1
2146  4
2147  2
2148  1
2149  2
2150  2
2151  3
2152  0
2153  2
2154  2
2155  2
2156  4
2157  1
2158  5
2159  0
2160  2
2161  1
2162  1
2163  1
2164  2
2165  3
2166  2
2167  2
2168  4
2169  0
2170  3
2171  2
2172  4
2173  3
2174  1
2175  0
2176  3
2177  2
2178  1
2179  2
2180  1
2181  1
2182  0
2183  3
2184  3
2185  3
2186  3
2187  1
2188  1
2189  4
2190  6
2191  1
2192  1
2193  4
2194  3
2195  4
2196  4
2197  3
2198  2
2199  1
2200  1
2201  2
2202  5
2203  3
2204  0
2205  1
2206  3
2207  2
2208  3
2209  1
2210  0
2211  3
2212  3
2213  2
2214  3
2215  3
2216  2
2217  1
2218  2
2219  3
2220  1
2221  3
2222  3
2223  1
2224  3
2225  2
2226  0
2227  2
2228  2
2229  3
2230  4
2231  6
2232  2
2233  2
2234  6
2235  1
2236  0
2237  3
2238  3
2239  0
2240  2
2241  1
2242  1
2243  1
2244  2
2245  5
2246  0
2247  6
2248  2
2249  6
2250  2
2251  3
2252  4
2253  1
2254  2
2255  1
2256  2
2257  2
2258  0
2259  2
2260  1
2261  4
2262  2
2263  2
2264  4
2265  1
2266  2
2267  1
2268  2
2269  3
2270  2
2271  2
2272  1
2273  4
2274  5
2275  1
2276  0
2277  4
2278  1
2279  2
2280  0
2281  0
2282  1
2283  1
2284  2
2285  0
2286  2
2287  2
2288  0
2289  2
2290  2
2291  3
2292  2
2293  0
2294  3
2295  1
2296  4
2297  1
2298  0
2299  0
2300  2
2301  2
2302  2
2303  0
2304  6
2305  0
2306  3
2307  0
2308  2
2309  2
2310  1
2311  1
2312  2
2313  0
2314  1
2315  1
2316  1
2317  2
2318  2
2319  2
2320  0
2321  1
2322  2
2323  2
2324  1
2325  0
2326  2
2327  1
2328  2
2329  4
2330  2
2331  1
2332  0
2333  1
2334  1
2335  2
2336  3
2337  2
2338  2
2339  5
2340  3
2341  2
2342  0
2343  2
2344  1
2345  1
2346  2
2347  3
2348  3
2349  2
2350  1
2351  1
2352  2
2353  1
2354  1
2355  2
2356  1
2357  0
2358  0
2359  1
2360  2
2361  3
2362  1
2363  0
2364  2
2365  3
2366  4
2367  1
2368  0
2369  2
2370  0
2371  1
2372  2
2373  2
2374  3
2375  3
2376  3
2377  0
2378  2
2379  2
2380  1
2381  2
2382  5
2383  1
2384  1
2385  5
2386  2
2387  1
2388  1
2389  1
2390  2
2391  2
2392  5
2393  3
2394  2
2395  2
2396  2
2397  2
2398  2
2399  1
2400  2
2401  1
2402  1
2403  2
2404  0
2405  2
2406  6
2407  1
2408  2
2409  2
2410  0
2411  2
2412  1
2413  1
2414  1
2415  2
2416  1
2417  1
2418  1
2419  2
2420  1
2421  1
2422  2
2423  1
2424  2
2425  2
2426  1
2427  2
2428  1
2429  0
2430  2
2431  0
2432  1
2433  1
2434  2
2435  1
2436  2
2437  0
2438  0
2439  0
2440  1
2441  3
2442  3
2443  1
2444  1
2445  4
2446  1
2447  3
2448  1
2449  4
2450  2
2451  1
2452  2
2453  2
2454  5
2455  1
2456  2
2457  1
2458  4
2459  2
2460  2
2461  3
2462  0
2463  4
2464  3
2465  2
2466  4
2467  0
2468  5
2469  1
2470  1
2471  1
2472  2
2473  1
2474  2
2475  3
2476  1
2477  0
2478  2
2479  0
2480  0
2481  0
2482  2
2483  0
2484  1
2485  1
2486  2
2487  2
2488  1
2489  3
2490  3
2491  3
2492  2
2493  1
2494  0
2495  0
2496  2
2497  0
2498  3
2499  2
2500  0
2501  2
2502  0
2503  1
2504  2
2505  3
2506  4
2507  1
2508  0
2509  2
2510  1
2511  2
2512  1
2513  2
2514  1
2515  1
2516  1
2517  0
2518  3
2519  3
2520  0
2521  4
2522  2
2523  3
2524  2
2525  3
2526  3
2527  3
2528  1
2529  2
2530  2
2531  0
2532  0
2533  0
2534  3
2535  2
2536  0
2537  2
2538  3
2539  2
2540  2
2541  1
2542  2
2543  3
2544  1
2545  3
2546  4
2547  0
2548  0
2549  4
2550  1
2551  4
2552  1
2553  0
2554  3
2555  0
2556  1
2557  1
2558  3
2559  1
2560  3
2561  0
2562  1
2563  2
2564  3
2565  3
2566  2
2567  1
2568  3
2569  3
2570  3
2571  2
2572  1
2573  0
2574  3
2575  2
2576  4
2577  0
2578  5
2579  1
2580  1
2581  0
2582  1
2583  1
2584  3
2585  4
2586  2
2587  2
2588  1
2589  1
2590  1
2591  2
2592  4
2593  2
2594  2
2595  3
2596  3
2597  2
2598  5
2599  0
2600  0
2601  5
2602  0
2603  6
2604  2
2605  0
2606  2
2607  3
2608  2
2609  4
2610  0
2611  0
2612  1
2613  1
2614  4
2615  3
2616  1
2617  1
2618  1
2619  3
2620  3
2621  4
2622  1
2623  4
2624  5
2625  4
2626  1
2627  1
2628  4
2629  4
2630  3
2631  1
2632  0
2633  1
2634  2
2635  2
2636  1
2637  3
2638  3
2639  0
2640  1
2641  5
2642  2
2643  3
2644  0
2645  1
2646  3
2647  2
2648  3
2649  0
2650  2
2651  2
2652  3
2653  4
2654  2
2655  1
2656  4
2657  4
2658  1
2659  2
2660  2
2661  0
2662  3
2663  1
2664  1
2665  0
2666  1
2667  2
2668  4
2669  2
2670  1
2671  1
2672  1
2673  1
2674  1
2675  2
2676  1
2677  3
2678  3
2679  4
2680  1
2681  2
2682  2
2683  1
2684  3
2685  2
2686  3
2687  1
2688  1
2689  2
2690  0
2691  0
2692  3
2693  4
2694  2
2695  3
2696  3
2697  3
2698  3
2699  3
2700  0
2701  1
2702  1
2703  2
2704  3
2705  0
2706  0
2707  0
2708  4
2709  1
2710  0
2711  1
2712  2
2713  2
2714  2
2715  1
2716  4
2717  1
2718  5
2719  2
2720  0
2721  3
2722  3
2723  3
2724  2
2725  1
2726  2
2727  2
2728  3
2729  0
2730  4
2731  3
2732  2
2733  1
2734  3
2735  4
2736  2
2737  1
2738  1
2739  3
2740  3
2741  1
2742  0
2743  2
2744  0
2745  1
2746  0
2747  1
2748  1
2749  2
2750  0
2751  2
2752  1
2753  1
2754  2
2755  3
2756  3
2757  2
2758  1
2759  2
2760  2
2761  3
2762  2
2763  0
2764  3
2765  4
2766  1
2767  0
2768  3
2769  1
2770  4
2771  3
2772  0
2773  4
2774  0
2775  6
2776  1
2777  1
2778  1
2779  3
2780  2
2781  2
2782  3
2783  2
2784  0
2785  3
2786  2
2787  0
2788  2
2789  3
2790  2
2791  2
2792  1
2793  1
2794  1
2795  1
2796  0
2797  3
2798  1
2799  0
2800  1
2801  2
2802  2
2803  2
2804  3
2805  0
2806  5
2807  2
2808  2
2809  1
2810  2
2811  3
2812  2
2813  1
2814  1
2815  3
2816  1
2817  3
2818  6
2819  2
2820  1
2821  3
2822  4
2823  2
2824  4
2825  2
2826  2
2827  1
2828  1
2829  1
2830  0
2831  1
2832  0
2833  1
2834  1
2835  4
2836  2
2837  0
2838  1
2839  0
2840  0
2841  0
2842  3
2843  2
2844  0
2845  1
2846  4
2847  2
2848  0
2849  2
2850  2
2851  2
2852  3
2853  1
2854  0
2855  0
2856  3
2857  3
2858  1
2859  2
2860  3
2861  1
2862  1
2863  2
2864  3
2865  2
2866  1
2867  0
2868  3
2869  3
2870  1
2871  1
2872  1
2873  1
2874  1
2875  1
2876  5
2877  1
2878  2
2879  1
2880  2
2881  3
2882  2
2883  2
2884  1
2885  1
2886  1
2887  3
2888  2
2889  1
2890  3
2891  0
2892  4
2893  0
2894  0
2895  3
2896  1
2897  1
2898  0
2899  0
2900  2
2901  2
2902  1
2903  1
2904  3
2905  0
2906  3
2907  1
2908  2
2909  1
2910  1
2911  3
2912  2
2913  2
2914  5
2915  1
2916  0
2917  4
2918  1
2919  3
2920  3
2921  1
2922  2
2923  2
2924  0
2925  0
2926  3
2927  1
2928  1
2929  0
2930  1
2931  1
2932  3
2933  2
2934  0
2935  1
2936  5
2937  3
2938  1
2939  5
2940  3
2941  0
2942  1
2943  2
2944  2
2945  2
2946  4
2947  2
2948  0
2949  1
2950  3
2951  0
2952  3
2953  2
2954  1
2955  2
2956  1
2957  2
2958  3
2959  1
2960  3
2961  1
2962  2
2963  5
2964  1
2965  2
2966  2
2967  2
2968  1
2969  3
2970  1
2971  1
2972  1
2973  5
2974  1
2975  1
2976  3
2977  2
2978  1
2979  4
2980  1
2981  5
2982  0
2983  1
2984  5
2985  4
2986  3
2987  2
2988  4
2989  1
2990  4
2991  1
2992  5
2993  3
2994  3
2995  2
2996  1
2997  0
2998  1
2999  2
3000  1
3001  1
3002  1
3003  0
3004  0
3005  0
3006  2
3007  3
3008  4
3009  3
3010  4
3011  3
3012  2
3013  3
3014  5
3015  3
3016  3
3017  0
3018  2
3019  0
3020  3
3021  2
3022  2
3023  2
3024  0
3025  1
3026  2
3027  1
3028  1
3029  3
3030  3
3031  4
3032  3
3033  1
3034  1
3035  2
3036  1
3037  4
3038  2
3039  1
3040  2
3041  2
3042  0
3043  1
3044  1
3045  1
3046  1
3047  2
3048  0
3049  4
3050  5
3051  2
3052  3
3053  0
3054  0
3055  3
3056  2
3057  2
3058  0
3059  0
3060  4
3061  4
3062  2
3063  2
3064  1
3065  1
3066  0
3067  3
3068  3
3069  0
3070  0
3071  1
3072  2
3073  2
3074  2
3075  3
3076  1
3077  3
3078  3
3079  3
3080  3
3081  0
3082  2
3083  2
3084  2
3085  2
3086  2
3087  0
3088  5
3089  2
3090  2
3091  0
3092  2
3093  2
3094  3
3095  0
3096  3
3097  0
3098  2
3099  4
3100  0
3101  3
3102  3
3103  1
3104  0
3105  7
3106  2
3107  1
3108  1
3109  5
3110  0
3111  2
3112  1
3113  6
3114  0
3115  1
3116  1
3117  2
3118  2
3119  4
3120  0
3121  3
3122  3
3123  2
3124  6
3125  1
3126  2
3127  3
3128  1
3129  2
3130  2
3131  1
3132  2
3133  0
3134  2
3135  2
3136  1
3137  2
3138  3
3139  3
3140  2
3141  2
3142  2
3143  1
3144  1
3145  1
3146  0
3147  1
3148  1
3149  4
3150  2
3151  3
3152  1
3153  0
3154  0
3155  1
3156  0
3157  0
3158  0
3159  3
3160  2
3161  2
3162  3
3163  5
3164  0
3165  1
3166  3
3167  2
3168  2
3169  4
3170  3
3171  4
3172  1
3173  2
3174  1
3175  0
3176  2
3177  2
3178  2
3179  1
3180  1
3181  2
3182  4
3183  1
3184  1
3185  2
3186  0
3187  2
3188  3
3189  1
3190  0
3191  3
3192  0
3193  2
3194  1
3195  0
3196  2
3197  1
3198  1
3199  2
3200  2
3201  3
3202  0
3203  1
3204  2
3205  1
3206  2
3207  2
3208  2
3209  4
3210  2
3211  1
3212  2
3213  3
3214  1
3215  2
3216  2
3217  0
3218  2
3219  2
3220  2
3221  0
3222  1
3223  1
3224  4
3225  2
3226  2
3227  4
3228  4
3229  0
3230  0
3231  3
3232  2
3233  0
3234  1
3235  5
3236  0
3237  1
3238  1
3239  2
3240  3
3241  2
3242  1
3243  3
3244  1
3245  2
3246  0
3247  3
3248  3
3249  0
3250  1
3251  1
3252  1
3253  3
3254  2
3255  1
3256  1
3257  1
3258  0
3259  2
3260  1
3261  1
3262  2
3263  2
3264  1
3265  1
3266  1
3267  4
3268  2
3269  3
3270  1
3271  2
3272  3
3273  2
3274  1
3275  2
3276  0
3277  0
3278  0
3279  4
3280  1
3281  1
3282  4
3283  5
3284  0
3285  2
3286  3
3287  1
3288  1
3289  2
3290  2
3291  4
3292  2
3293  2
3294  2
3295  0
3296  5
3297  3
3298  2
3299  2
3300  2
3301  0
3302  1
3303  3
3304  0
3305  1
3306  0
3307  1
3308  2
3309  1
3310  1
3311  1
3312  2
3313  1
3314  1
3315  5
3316  0
3317  3
3318  0
3319  2
3320  1
3321  2
3322  2
3323  0
3324  1
3325  1
3326  1
3327  2
3328  5
3329  1
3330  0
3331  1
3332  1
3333  4
3334  1
3335  0
3336  0
3337  1
3338  0
3339  0
3340  2
3341  1
3342  1
3343  0
3344  1
3345  3
3346  1
3347  1
3348  1
3349  0
3350  0
3351  1
3352  2
3353  4
3354  1
3355  1
3356  0
3357  2
3358  0
3359  0
3360  0
3361  2
3362  0
3363  2
3364  2
3365  2
3366  2
3367  3
3368  1
3369  1
3370  1
3371  1
3372  1
3373  2
3374  0
3375  0
3376  2
3377  1
3378  3
3379  0
3380  2
3381  2
3382  1
3383  3
3384  1
3385  4
3386  1
3387  2
3388  1
3389  3
3390  3
3391  2
3392  3
3393  2
3394  4
3395  2
3396  0
3397  3
3398  2
3399  2
3400  2
3401  1
3402  0
3403  4
3404  3
3405  2
3406  0
3407  0
3408  1
3409  2
3410  6
3411  0
3412  5
3413  5
3414  3
3415  1
3416  0
3417  4
3418  1
3419  4
3420  2
3421  1
3422  2
3423  1
3424  0
3425  3
3426  3
3427  2
3428  2
3429  1
3430  0
3431  1
3432  1
3433  1
3434  2
3435  2
3436  2
3437  2
3438  1
3439  2
3440  2
3441  0
3442  1
3443  0
3444  1
3445  2
3446  1
3447  2
3448  2
3449  2
3450  1
3451  2
3452  1
3453  1
3454  0
3455  2
3456  2
3457  1
3458  1
3459  1
3460  4
3461  0
3462  2
3463  1
3464  3
3465  1
3466  1
3467  1
3468  5
3469  1
3470  0
3471  1
3472  1
3473  1
3474  1
3475  0
3476  0
3477  1
3478  3
3479  0
3480  0
3481  2
3482  1
3483  1
3484  1
3485  1
3486  0
3487  2
3488  2
3489  0
3490  1
3491  3
3492  1
3493  0
3494  0
3495  1
3496  2
3497  2
3498  1
3499  3
3500  1
3501  1
3502  2
3503  4
3504  1
3505  3
3506  1
3507  1
3508  1
3509  3
3510  0
3511  2
3512  2
3513  4
3514  1
3515  1
3516  0
3517  0
3518  2
3519  2
3520  0
3521  2
3522  0
3523  3
3524  2
3525  2
3526  0
3527  2
3528  2
3529  1
3530  1
3531  1
3532  0
3533  2
3534  0
3535  4
3536  2
3537  2
3538  1
3539  3
3540  2
3541  0
3542  3
3543  0
3544  2
3545  0
3546  0
3547  2
3548  1
3549  2
3550  3
3551  1
3552  2
3553  1
3554  0
3555  1
3556  0
3557  2
3558  1
3559  1
3560  1
3561  0
3562  1
3563  4
3564  1
3565  2
3566  0
3567  0
3568  3
3569  2
3570  4
3571  5
3572  3
3573  2
3574  1
3575  2
3576  1
3577  2
3578  2
3579  2
3580  3
3581  0
3582  2
3583  3
3584  1
3585  0
3586  1
3587  4
3588  2
3589  2
3590  0
3591  0
3592  0
3593  1
3594  1
3595  2
3596  2
3597  1
3598  1
3599  1
3600  4
3601  0
3602  0
3603  2
3604  1
3605  1
3606  3
3607  1
3608  1
3609  1
3610  4
3611  1
3612  3
3613  1
3614  3
3615  1
3616  2
3617  1
3618  1
3619  0
3620  3
3621  4
3622  2
3623  2
3624  3
3625  3
3626  2
3627  3
3628  2
3629  1
3630  1
3631  4
3632  1
3633  1
3634  2
3635  3
3636  4
3637  3
3638  3
3639  0
3640  0
3641  1
3642  5
3643  1
3644  1
3645  1
3646  1
3647  1
3648  1
3649  0
3650  1
3651  4
3652  0
3653  2
3654  3
3655  5
3656  0
3657  2
3658  1
3659  2
3660  0
3661  1
3662  1
3663  0
3664  2
3665  0
3666  2
3667  4
3668  2
3669  1
3670  1
3671  2
3672  1
3673  1
3674  0
3675  1
3676  3
3677  1
3678  3
3679  1
3680  1
3681  7
3682  0
3683  1
3684  1
3685  1
3686  0
3687  1
3688  1
3689  3
3690  0
3691  5
3692  2
3693  2
3694  1
3695  3
3696  2
3697  2
3698  2
3699  2
3700  1
3701  3
3702  2
3703  1
3704  1
3705  2
3706  0
3707  1
3708  5
3709  2
3710  1
3711  1
3712  3
3713  1
3714  1
3715  2
3716  0
3717  5
3718  4
3719  2
3720  1
3721  3
3722  1
3723  1
3724  2
3725  5
3726  4
3727  0
3728  1
3729  2
3730  1
3731  1
3732  3
3733  3
3734  0
3735  3
3736  2
3737  0
3738  1
3739  1
3740  1
3741  0
3742  0
3743  2
3744  0
3745  1
3746  2
3747  3
3748  2
3749  2
3750  1
3751  1
3752  0
3753  2
3754  0
3755  1
3756  1
3757  3
3758  2
3759  3
3760  2
3761  3
3762  0
3763  2
3764  2
3765  0
3766  0
3767  0
3768  2
3769  1
3770  2
3771  3
3772  1
3773  2
3774  3
3775  0
3776  3
3777  0
3778  4
3779  0
3780  3
3781  0
3782  3
3783  3
3784  5
3785  3
3786  1
3787  1
3788  2
3789  0
3790  4
3791  2
3792  0
3793  2
3794  0
3795  2
3796  0
3797  1
3798  0
3799  0
3800  1
3801  0
3802  2
3803  3
3804  1
3805  2
3806  0
3807  3
3808  0
3809  1
3810  0
3811  2
3812  1
3813  2
3814  1
3815  2
3816  0
3817  2
3818  1
3819  1
3820  3
3821  1
3822  2
3823  1
3824  4
3825  1
3826  4
3827  1
3828  2
3829  0
3830  1
3831  0
3832  1
3833  0
3834  0
3835  0
3836  4
3837  2
3838  2
3839  0
3840  0
3841  1
3842  0
3843  1
3844  4
3845  1
3846  2
3847  1
3848  2
3849  2
3850  3
3851  0
3852  1
3853  0
3854  0
3855  2
3856  1
3857  1
3858  2
3859  1
3860  2
3861  1
3862  2
3863  0
3864  0
3865  2
3866  1
3867  0
3868  2
3869  3
3870  2
3871  3
3872  1
3873  2
3874  2
3875  0
3876  2
3877  3
3878  3
3879  1
3880  1
3881  3
3882  1
3883  1
3884  0
3885  1
3886  0
3887  0
3888  1
3889  2
3890  5
3891  2
3892  1
3893  1
3894  0
3895  2
3896  0
3897  2
3898  0
3899  1
3900  0
3901  4
3902  1
3903  4
3904  2
3905  1
3906  0
3907  4
3908  1
3909  1
3910  3
3911  2
3912  0
3913  2
3914  1
3915  1
3916  2
3917  0
3918  4
3919  2
3920  1
3921  5
3922  3
3923  1
3924  1
3925  0
3926  1
3927  0
3928  0
3929  0
3930  0
3931  1
3932  0
3933  4
3934  5
3935  2
3936  1
3937  1
3938  1
3939  1
3940  2
3941  3
3942  1
3943  5
3944  4
3945  1
3946  1
3947  0
3948  3
3949  2
3950  2
3951  1
3952  1
3953  2
3954  2
3955  1
3956  4
3957  2
3958  1
3959  3
3960  1
3961  1
3962  2
3963  3
3964  0
3965  1
3966  1
3967  2
3968  2
3969  3
3970  0
3971  2
3972  0
3973  7
3974  0
3975  3
3976  0
3977  4
3978  4
3979  2
3980  0
3981  0
3982  3
3983  3
3984  1
3985  9
3986  2
3987  1
3988  2
3989  1
3990  1
3991  2
3992  2
3993  2
3994  2
3995  0
3996  3
3997  5
3998  0
3999  0
4000  3
4001  0
4002  0
4003  0
4004  2
4005  2
4006  3
4007  8
4008  0
4009  4
4010  2
4011  4
4012  2
4013  1
4014  2
4015  1
4016  3
4017  4
4018  1
4019  1
4020  2
4021  1
4022  1
4023  0
4024  0
4025  1
4026  0
4027  2
4028  1
4029  1
4030  0
4031  2
4032  6
4033  1
4034  1
4035  3
4036  3
4037  3
4038  1
4039  0
4040  4
4041  0
4042  0
4043  2
4044  1
4045  2
4046  3
4047  4
4048  1
4049  2
4050  1
4051  0
4052  2
4053  5
4054  3
4055  1
4056  2
4057  2
4058  1
4059  3
4060  4
4061  1
4062  1
4063  5
4064  1
4065  0
4066  1
4067  3
4068  0
4069  3
4070  1
4071  4
4072  0
4073  1
4074  2
4075  0
4076  2
4077  3
4078  3
4079  1
4080  1
4081  1
4082  2
4083  2
4084  0
4085  0
4086  2
4087  2
4088  2
4089  3
4090  3
4091  2
4092  1
4093  2
4094  2
4095  1
4096  4
4097  3
4098  1
4099  4
4100  3
4101  2
4102  2
4103  3
4104  4
4105  0
4106  1
4107  2
4108  1
4109  0
4110  0
4111  1
4112  2
4113  2
4114  1
4115  0
4116  4
4117  1
4118  2
4119  5
4120  2
4121  1
4122  3
4123  4
4124  1
4125  3
4126  1
4127  3
4128  1
4129  1
4130  1
4131  3
4132  1
4133  1
4134  1
4135  3
4136  0
4137  4
4138  1
4139  2
4140  2
4141  1
4142  1
4143  3
4144  4
4145  3
4146  4
4147  1
4148  1
4149  1
4150  3
4151  1
4152  2
4153  0
4154  2
4155  2
4156  4
4157  1
4158  3
4159  5
4160  2
4161  4
4162  3
4163  3
4164  4
4165  1
4166  1
4167  0
4168  2
4169  1
4170  2
4171  2
4172  0
4173  3
4174  1
4175  1
4176  2
4177  3
4178  1
4179  1
4180  1
4181  4
4182  1
4183  0
4184  0
4185  1
4186  2
4187  2
4188  1
4189  3
4190  1
4191  7
4192  0
4193  2
4194  3
4195  4
4196  5
4197  4
4198  5
4199  3
4200  3
4201  5
4202  3
4203  5
4204  1
4205  1
4206  0
4207  2
4208  4
4209  3
4210  2
4211  4
4212  3
4213  3
4214  1
4215  2
4216  3
4217  7
4218  2
4219  3
4220  4
4221  0
4222  3
4223  4
4224  3
4225  3
4226  4
4227  2
4228  4
4229  1
4230  3
4231  2
4232  5
4233  1
4234  3
4235  2
4236  2
4237  2
4238  6
4239  3
4240  5
4241  3
4242  4
4243  4
4244  1
4245  2
4246  5
4247  6
4248  7
4249  4
4250  5
4251  4
4252  4
4253  2
4254  2
4255  2
4256  2
4257  9
4258  3
4259  2
4260  3
4261  4
4262  7
4263  3
4264  1
4265  7
4266  10
4267  5
4268  11
4269  2
4270  7
4271  10
4272  8
4273  6
4274  7
4275  3
4276  5
4277  4
4278  8
4279  5
4280  4
4281  6
4282  5
4283  5
4284  2
4285  7
4286  7
4287  2
4288  6
4289  9
4290  10
4291  6
4292  2
4293  5
4294  2
4295  9
4296  3
4297  10
4298  8
4299  8
4300  7
4301  3
4302  4
4303  5
4304  6
4305  4
4306  7
4307  5
4308  4
4309  9
4310  8
4311  8
4312  5
4313  4
4314  6
4315  3
4316  7
4317  7
4318  9
4319  11
4320  8
4321  10
4322  8
4323  9
4324  8
4325  9
4326  7
4327  11
4328  7
4329  4
4330  5
4331  9
4332  5
4333  10
4334  7
4335  6
4336  7
4337  4
4338  10
4339  9
4340  6
4341  3
4342  12
4343  11
4344  7
4345  8
4346  10
4347  5
4348  13
4349  9
4350  15
4351  7
4352  10
4353  7
4354  4
4355  5
4356  7
4357  15
4358  9
4359  8
4360  7
4361  12
4362  17
4363  6
4364  10
4365  14
4366  11
4367  5
4368  7
4369  11
4370  11
4371  16
4372  9
4373  12
4374  16
4375  14
4376  17
4377  21
4378  15
4379  10
4380  12
4381  13
4382  11
4383  16
4384  1
4385  13
4386  15
4387  15
4388  9
4389  11
4390  9
4391  11
4392  9
4393  17
4394  11
4395  10
4396  14
4397  19
4398  13
4399  9
4400  10
4401  17
4402  17
4403  17
4404  9
4405  17
4406  19
4407  16
4408  14
4409  14
4410  19
4411  15
4412  12
4413  16
4414  17
4415  16
4416  10
4417  15
4418  10
4419  18
4420  13
4421  16
4422  21
4423  12
4424  22
4425  14
4426  18
4427  23
4428  13
4429  23
4430  23
4431  24
4432  22
4433  18
4434  13
4435  18
4436  19
4437  11
4438  25
4439  20
4440  18
4441  19
4442  16
4443  26
4444  15
4445  19
4446  25
4447  25
4448  21
4449  18
4450  17
4451  21
4452  28
4453  26
4454  22
4455  17
4456  21
4457  16
4458  29
4459  13
4460  18
4461  26
4462  23
4463  15
4464  23
4465  21
4466  19
4467  28
4468  23
4469  21
4470  21
4471  31
4472  17
4473  25
4474  23
4475  21
4476  18
4477  24
4478  27
4479  29
4480  24
4481  10
4482  30
4483  26
4484  17
4485  20
4486  25
4487  30
4488  35
4489  22
4490  22
4491  21
4492  21
4493  29
4494  16
4495  26
4496  20
4497  21
4498  28
4499  26
4500  23
4501  11
4502  18
4503  15
4504  23
4505  24
4506  21
4507  15
4508  21
4509  30
4510  25
4511  15
4512  16
4513  28
4514  16
4515  15
4516  29
4517  21
4518  16
4519  21
4520  20
4521  11
4522  16
4523  13
4524  22
4525  23
4526  27
4527  12
4528  16
4529  16
4530  16
4531  13
4532  15
4533  9
4534  11
4535  12
4536  16
4537  13
4538  13
4539  17
4540  11
4541  13
4542  13
4543  10
4544  13
4545  10
4546  9
4547  5
4548  11
4549  10
4550  6
4551  10
4552  4
4553  4
4554  7
4555  6
4556  9
4557  7
4558  9
4559  7
4560  2
4561  8
4562  7
4563  4
4564  5
4565  4
4566  2
4567  6
4568  2
4569  8
4570  4
4571  2
4572  5
4573  0
4574  9
4575  6
4576  5
4577  2
4578  2
4579  3
4580  1
4581  2
4582  3
4583  3
4584  0
4585  3
4586  1
4587  1
4588  2
4589  3
4590  6
4591  0
4592  5
4593  2
4594  4
4595  0
4596  3
4597  3
4598  3
4599  0
4600  2
4601  2
4602  1
4603  1
4604  1
4605  1
4606  1
4607  0
4608  1
4609  3
4610  1
4611  0
4612  0
4613  3
4614  0
4615  2
4616  0
4617  3
4618  1
4619  1
4620  0
4621  1
4622  3
4623  0
4624  3
4625  0
4626  2
4627  1
4628  0
4629  3
4630  0
4631  1
4632  2
4633  0
4634  2
4635  2
4636  1
4637  1
4638  2
4639  0
4640  2
4641  1
4642  2
4643  1
4644  2
4645  3
4646  0
4647  1
4648  2
4649  1
4650  1
4651  1
4652  1
4653  1
4654  1
4655  0
4656  2
4657  2
4658  1
4659  2
4660  2
4661  1
4662  1
4663  1
4664  1
4665  1
4666  0
4667  6
4668  4
4669  2
4670  0
4671  3
4672  2
4673  1
4674  1
4675  0
4676  1
4677  2
4678  4
4679  2
4680  2
4681  2
4682  2
4683  1
4684  1
4685  1
4686  3
4687  0
4688  0
4689  3
4690  2
4691  0
4692  1
4693  2
4694  1
4695  0
4696  1
4697  1
4698  5
4699  1
4700  2
4701  2
4702  0
4703  1
4704  2
4705  1
4706  1
4707  0
4708  1
4709  3
4710  0
4711  0
4712  1
4713  0
4714  3
4715  2
4716  1
4717  0
4718  1
4719  4
4720  1
4721  1
4722  0
4723  0
4724  4
4725  4
4726  2
4727  1
4728  2
4729  3
4730  1
4731  2
4732  0
4733  1
4734  1
4735  1
4736  0
4737  3
4738  2
4739  3
4740  5
4741  0
4742  1
4743  2
4744  1
4745  1
4746  3
4747  3
4748  4
4749  2
4750  1
4751  3
4752  5
4753  5
4754  0
4755  0
4756  2
4757  3
4758  4
4759  2
4760  3
4761  2
4762  2
4763  0
4764  0
4765  1
4766  2
4767  2
4768  2
4769  2
4770  2
4771  2
4772  2
4773  1
4774  0
4775  4
4776  5
4777  3
4778  0
4779  2
4780  1
4781  0
4782  3
4783  1
4784  2
4785  2
4786  3
4787  2
4788  2
4789  4
4790  5
4791  2
4792  1
4793  3
4794  2
4795  4
4796  6
4797  0
4798  0
4799  0
4800  3
4801  2
4802  3
4803  0
4804  2
4805  2
4806  1
4807  6
4808  2
4809  0
4810  6
4811  2
4812  4
4813  1
4814  2
4815  2
4816  3
4817  0
4818  2
4819  0
4820  3
4821  3
4822  1
4823  5
4824  3
4825  2
4826  4
4827  2
4828  3
4829  2
4830  4
4831  2
4832  1
4833  3
4834  1
4835  3
4836  3
4837  5
4838  4
4839  3
4840  2
4841  2
4842  4
4843  7
4844  3
4845  3
4846  3
4847  1
4848  3
4849  1
4850  2
4851  3
4852  1
4853  6
4854  1
4855  2
4856  3
4857  3
4858  4
4859  3
4860  3
4861  6
4862  3
4863  4
4864  1
4865  2
4866  4
4867  3
4868  3
4869  3
4870  3
4871  4
4872  2
4873  1
4874  3
4875  3
4876  3
4877  3
4878  3
4879  6
4880  3
4881  3
4882  3
4883  5
4884  5
4885  2
4886  3
4887  2
4888  6
4889  7
4890  0
4891  6
4892  1
4893  5
4894  5
4895  5
4896  3
4897  7
4898  6
4899  4
4900  3
4901  4
4902  7
4903  9
4904  4
4905  7
4906  2
4907  4
4908  6
4909  7
4910  4
4911  5
4912  4
4913  3
4914  6
4915  4
4916  2
4917  3
4918  6
4919  3
4920  4
4921  6
4922  7
4923  9
4924  5
4925  4
4926  5
4927  9
4928  4
4929  5
4930  4
4931  7
4932  6
4933  9
4934  10
4935  9
4936  7
4937  8
4938  7
4939  10
4940  4
4941  6
4942  6
4943  6
4944  7
4945  6
4946  8
4947  4
4948  3
4949  8
4950  14
4951  13
4952  14
4953  8
4954  5
4955  14
4956  7
4957  5
4958  6
4959  9
4960  8
4961  7
4962  6
4963  12
4964  7
4965  5
4966  7
4967  11
4968  6
4969  9
4970  11
4971  8
4972  5
4973  6
4974  6
4975  6
4976  13
4977  12
4978  11
4979  12
4980  7
4981  6
4982  5
4983  16
4984  12
4985  9
4986  9
4987  11
4988  8
4989  7
4990  11
4991  18
4992  13
4993  13
4994  9
4995  6
4996  12
4997  7
4998  11
4999  4
5000  6
5001  9
5002  10
5003  12
5004  12
5005  6
5006  6
5007  11
5008  5
5009  6
5010  5
5011  8
5012  9
5013  12
5014  8
5015  11
5016  11
5017  10
5018  14
5019  7
5020  13
5021  5
5022  10
5023  11
5024  19
5025  13
5026  9
5027  14
5028  10
5029  11
5030  6
5031  15
5032  13
5033  10
5034  4
5035  10
5036  17
5037  13
5038  11
5039  11
5040  9
5041  10
5042  10
5043  6
5044  9
5045  13
5046  9
5047  8
5048  10
5049  11
5050  9
5051  16
5052  12
5053  7
5054  7
5055  12
5056  10
5057  6
5058  14
5059  16
5060  8
5061  6
5062  11
5063  14
5064  7
5065  13
5066  9
5067  8
5068  8
5069  10
5070  14
5071  6
5072  8
5073  11
5074  12
5075  10
5076  13
5077  8
5078  14
5079  10
5080  10
5081  6
5082  9
5083  11
5084  15
5085  16
5086  8
5087  13
5088  7
5089  9
5090  9
5091  12
5092  17
5093  13
5094  6
5095  15
5096  17
5097  13
5098  14
5099  10
5100  9
5101  15
5102  14
5103  12
5104  10
5105  7
5106  11
5107  15
5108  11
5109  13
5110  16
5111  13
5112  25
5113  14
5114  18
5115  13
5116  7
5117  16
5118  15
5119  16
5120  22
5121  21
5122  17
5123  15
5124  18
5125  11
5126  20
5127  20
5128  12
5129  15
5130  14
5131  12
5132  25
5133  21
5134  16
5135  14
5136  13
5137  20
5138  17
5139  17
5140  22
5141  19
5142  14
5143  22
5144  17
5145  17
5146  24
5147  22
5148  23
5149  23
5150  25
5151  26
5152  23
5153  18
5154  18
5155  30
5156  19
5157  16
5158  12
5159  9
5160  28
5161  32
5162  12
5163  25
5164  34
5165  22
5166  20
5167  21
5168  28
5169  22
5170  22
5171  24
5172  20
5173  23
5174  21
5175  11
5176  25
5177  24
5178  22
5179  30
5180  23
5181  30
5182  25
5183  23
5184  27
5185  19
5186  23
5187  14
5188  16
5189  32
5190  28
5191  35
5192  25
5193  24
5194  19
5195  19
5196  20
5197  28
5198  14
5199  22
5200  30
5201  17
5202  29
5203  23
5204  19
5205  18
5206  13
5207  18
5208  21
5209  25
5210  20
5211  22
5212  11
5213  14
5214  24
5215  22
5216  19
5217  28
5218  25
5219  34
5220  18
5221  15
5222  19
5223  16
5224  19
5225  17
5226  21
5227  11
5228  16
5229  16
5230  18
5231  18
5232  12
5233  21
5234  16
5235  18
5236  14
5237  19
5238  16
5239  18
5240  7
5241  11
5242  12
5243  15
5244  19
5245  15
5246  11
5247  9
5248  6
5249  11
5250  17
5251  5
5252  9
5253  8
5254  8
5255  9
5256  13
5257  5
5258  5
5259  20
5260  11
5261  3
5262  4
5263  8
5264  8
5265  6
5266  9
5267  8
5268  7
5269  10
5270  11
5271  6
5272  5
5273  4
5274  5
5275  5
5276  8
5277  6
5278  3
5279  3
5280  2
5281  3
5282  3
5283  3
5284  4
5285  3
5286  1
5287  3
5288  2
5289  2
5290  0
5291  3
5292  1
5293  2
5294  2
5295  1
5296  0
5297  1
5298  0
5299  3
5300  3
5301  1
5302  1
5303  0
5304  2
5305  0
5306  2
5307  1
5308  0
5309  0
5310  2
5311  1
5312  0
5313  0
5314  1
5315  3
5316  1
5317  2
5318  0
5319  4
5320  0
5321  3
5322  2
5323  0
5324  0
5325  0
5326  2
5327  1
5328  0
5329  1
5330  1
5331  3
5332  3
5333  0
5334  0
5335  0
5336  0
5337  4
5338  2
5339  1
5340  2
5341  0
5342  1
5343  3
5344  1
5345  0
5346  2
5347  4
5348  2
5349  1
5350  0
5351  1
5352  1
5353  1
5354  2
5355  1
5356  0
5357  0
5358  4
5359  0
5360  0
5361  2
5362  2
5363  0
5364  3
5365  2
5366  1
5367  1
5368  2
5369  0
5370  1
5371  2
5372  1
5373  1
5374  1
5375  0
5376  1
5377  0
5378  2
5379  2
5380  0
5381  3
5382  3
5383  2
5384  0
5385  1
5386  1
5387  3
5388  1
5389  1
5390  1
5391  2
5392  1
5393  3
5394  1
5395  1
5396  1
5397  0
5398  0
5399  2
5400  2
5401  2
5402  1
5403  2
5404  2
5405  1
5406  4
5407  0
5408  1
5409  1
5410  1
5411  3
5412  2
5413  2
5414  3
5415  0
5416  4
5417  1
5418  2
5419  2
5420  5
5421  5
5422  2
5423  4
5424  3
5425  3
5426  2
5427  2
5428  0
5429  6
5430  4
5431  3
5432  4
5433  6
5434  0
5435  1
5436  4
5437  3
5438  3
5439  4
5440  3
5441  2
5442  0
5443  3
5444  2
5445  1
5446  2
5447  2
5448  1
5449  2
5450  2
5451  3
5452  3
5453  4
5454  5
5455  5
5456  2
5457  3
5458  5
5459  2
5460  5
5461  4
5462  4
5463  4
5464  3
5465  3
5466  4
5467  1
5468  3
5469  1
5470  7
5471  6
5472  4
5473  1
5474  4
5475  1
5476  4
5477  2
5478  3
5479  2
5480  1
5481  3
5482  3
5483  3
5484  0
5485  5
5486  2
5487  2
5488  5
5489  2
5490  3
5491  4
5492  0
5493  4
5494  4
5495  4
5496  1
5497  7
5498  6
5499  3
5500  2
5501  4
5502  1
5503  1
5504  3
5505  3
5506  4
5507  2
5508  1
5509  2
5510  1
5511  2
5512  2
5513  3
5514  3
5515  1
5516  1
5517  4
5518  1
5519  8
5520  1
5521  2
5522  2
5523  2
5524  6
5525  3
5526  3
5527  2
5528  2
5529  3
5530  2
5531  4
5532  1
5533  1
5534  4
5535  2
5536  6
5537  5
5538  2
5539  2
5540  6
5541  5
5542  3
5543  5
5544  5
5545  4
5546  6
5547  3
5548  9
5549  1
5550  2
5551  2
5552  3
5553  9
5554  6
5555  4
5556  4
5557  10
5558  4
5559  7
5560  5
5561  5
5562  4
5563  5
5564  3
5565  6
5566  4
5567  10
5568  4
5569  5
5570  9
5571  6
5572  7
5573  8
5574  8
5575  7
5576  4
5577  5
5578  4
5579  10
5580  8
5581  8
5582  6
5583  4
5584  11
5585  9
5586  8
5587  7
5588  11
5589  9
5590  6
5591  11
5592  10
5593  8
5594  12
5595  6
5596  9
5597  17
5598  5
5599  12
5600  9
5601  16
5602  9
5603  14
5604  15
5605  21
5606  8
5607  10
5608  12
5609  10
5610  16
5611  12
5612  9
5613  6
5614  8
5615  15
5616  13
5617  25
5618  13
5619  10
5620  15
5621  14
5622  14
5623  16
5624  18
5625  20
5626  15
5627  15
5628  23
5629  12
5630  20
5631  18
5632  19
5633  8
5634  20
5635  17
5636  15
5637  20
5638  16
5639  13
5640  19
5641  19
5642  17
5643  19
5644  12
5645  20
5646  21
5647  22
5648  20
5649  28
5650  12
5651  16
5652  16
5653  21
5654  10
5655  14
5656  19
5657  22
5658  20
5659  26
5660  23
5661  25
5662  19
5663  12
5664  22
5665  25
5666  33
5667  19
5668  25
5669  23
5670  20
5671  27
5672  24
5673  24
5674  23
5675  18
5676  21
5677  19
5678  13
5679  29
5680  21
5681  22
5682  23
5683  29
5684  19
5685  16
5686  27
5687  20
5688  19
5689  13
5690  24
5691  39
5692  18
5693  24
5694  25
5695  19
5696  20
5697  32
5698  26
5699  29
5700  23
5701  28
5702  29
5703  21
5704  26
5705  25
5706  28
5707  26
5708  22
5709  19
5710  24
5711  22
5712  20
5713  10
5714  15
5715  17
5716  24
5717  29
5718  11
5719  13
5720  24
5721  19
5722  26
5723  26
5724  12
5725  14
5726  23
5727  24
5728  24
5729  21
5730  16
5731  20
5732  18
5733  19
5734  16
5735  12
5736  10
5737  16
5738  15
5739  16
5740  12
5741  8
5742  10
5743  11
5744  17
5745  12
5746  12
5747  15
5748  6
5749  14
5750  6
5751  9
5752  15
5753  8
5754  10
5755  14
5756  5
5757  17
5758  6
5759  7
5760  5
5761  4
5762  7
5763  6
5764  11
5765  9
5766  8
5767  6
5768  7
5769  6
5770  7
5771  3
5772  6
5773  3
5774  5
5775  6
5776  3
5777  3
5778  3
5779  3
5780  2
5781  6
5782  9
5783  4
5784  3
5785  3
5786  5
5787  3
5788  2
5789  2
5790  0
5791  3
5792  2
5793  0
5794  0
5795  2
5796  1
5797  3
5798  1
5799  3
5800  2
5801  1
5802  0
5803  1
5804  1
5805  2
5806  0
5807  0
5808  0
5809  0
5810  2
5811  0
5812  1
5813  0
5814  2
5815  0
5816  2
5817  2
5818  0
5819  2
5820  1
5821  1
5822  1
5823  0
5824  0
5825  1
5826  1
5827  0
5828  1
5829  0
5830  1
5831  0
5832  2
5833  1
5834  1
5835  0
5836  0
5837  1
5838  0
5839  1
5840  0
5841  2
5842  1
5843  1
5844  1
5845  0
5846  2
5847  0
5848  1
5849  0
5850  0
5851  0
5852  0
5853  1
5854  0
5855  1
5856  0
5857  1
5858  1
5859  0
5860  0
5861  0
5862  0
5863  1
5864  1
5865  2
5866  0
5867  0
5868  1
5869  1
5870  0
5871  0
5872  0
5873  0
5874  0
5875  0
5876  1
5877  2
5878  2
5879  0
5880  0
5881  0
5882  0
5883  0
5884  0
5885  3
5886  0
5887  0
5888  2
5889  0
5890  1
5891  2
5892  1
5893  0
5894  1
5895  0
5896  0
5897  0
5898  0
5899  0
5900  1
5901  0
5902  0
5903  0
5904  0
5905  0
5906  3
5907  0
5908  1
5909  0
5910  1
5911  0
5912  0
5913  0
5914  0
5915  0
5916  1
5917  0
5918  0
5919  0
5920  0
5921  0
5922  0
5923  0
5924  0
5925  1
5926  0
5927  1
5928  1
5929  1
5930  0
5931  1
5932  0
5933  0
5934  0
5935  0
5936  0
5937  0
5938  0
5939  1
5940  0
5941  1
5942  0
5943  1
5944  0
5945  1
5946  0
5947  0
5948  0
5949  1
5950  1
5951  0
5952  0
5953  0
5954  0
5955  0
5956  0
5957  3
5958  0
5959  0
5960  1
5961  1
5962  1
5963  0
5964  0
5965  1
5966  0
5967  0
5968  0
5969  0
5970  2
5971  1
5972  1
5973  1
5974  1
5975  0
5976  0
5977  0
5978  1
5979  0
5980  0
5981  1
5982  1
5983  0
5984  0
5985  1
5986  0
5987  1
5988  0
5989  0
5990  0
5991  0
5992  0
5993  1
5994  0
5995  0
5996  0
5997  2
5998  0
5999  1
6000  0
6001  2
6002  0
6003  0
6004  0
6005  2
6006  0
6007  0
6008  1
6009  0
6010  0
6011  2
6012  1
6013  0
6014  0
6015  0
6016  2
6017  1
6018  0
6019  0
6020  2
6021  0
6022  1
6023  0
6024  1
6025  0
6026  0
6027  2
6028  0
6029  1
6030  1
6031  0
6032  0
6033  1
6034  3
6035  0
6036  2
6037  2
6038  0
6039  0
6040  2
6041  1
6042  1
6043  1
6044  0
6045  0
6046  1
6047  0
6048  1
6049  2
6050  3
6051  0
6052  2
6053  2
6054  0
6055  1
6056  2
6057  1
6058  0
6059  0
6060  2
6061  1
6062  0
6063  0
6064  1
6065  1
6066  1
6067  2
6068  2
6069  1
6070  1
6071  1
6072  0
6073  3
6074  1
6075  3
6076  5
6077  0
6078  1
6079  0
6080  0
6081  2
6082  4
6083  1
6084  3
6085  2
6086  5
6087  2
6088  3
6089  1
6090  6
6091  1
6092  6
6093  2
6094  3
6095  3
6096  3
6097  1
6098  2
6099  5
6100  3
6101  5
6102  3
6103  2
6104  3
6105  2
6106  1
6107  3
6108  4
6109  2
6110  6
6111  4
6112  1
6113  3
6114  4
6115  2
6116  4
6117  3
6118  1
6119  2
6120  4
6121  2
6122  3
6123  5
6124  3
6125  3
6126  4
6127  0
6128  1
6129  2
6130  3
6131  2
6132  5
6133  0
6134  2
6135  0
6136  1
6137  0
6138  3
6139  1
6140  1
6141  0
6142  2
6143  2
6144  1
6145  1
6146  0
6147  0
6148  1
6149  0
6150  1
6151  1
6152  0
6153  1
6154  0
6155  1
6156  1
6157  1
6158  1
6159  1
6160  0
6161  0
6162  0
6163  0
6164  0
6165  1
6166  0
6167  0
6168  0
6169  1
6170  0
6171  0
6172  1
6173  0
6174  1
6175  0
6176  0
6177  1
6178  1
6179  1
6180  0
6181  0
6182  2
6183  0
6184  0
6185  0
6186  0
6187  2
6188  0
6189  0
6190  1
6191  0
6192  0
6193  0
6194  1
6195  0
6196  1
6197  0
6198  1
6199  0
6200  0
6201  0
6202  0
6203  0
6204  0
6205  0
6206  0
6207  0
6208  0
6209  0
6210  0
6211  0
6212  0
6213  2
6214  0
6215  1
6216  0
6217  0
6218  0
6219  0
6220  0
6221  2
6222  0
6223  0
6224  1
6225  1
6226  0
6227  1
6228  0
6229  0
6230  0
6231  0
6232  0
6233  0
6234  0
6235  2
6236  0
6237  1
6238  2
6239  0
6240  1
6241  0
6242  0
6243  0
6244  0
6245  0
6246  1
6247  0
6248  1
6249  1
6250  0
6251  0
6252  0
6253  2
6254  0
6255  0
6256  0
6257  1
6258  0
6259  1
6260  0
6261  0
6262  0
6263  0
6264  1
6265  0
6266  0
6267  1
6268  0
6269  0
6270  0
6271  2
6272  0
6273  0
6274  0
6275  1
6276  0
6277  0
6278  1
6279  0
6280  1
6281  0
6282  1
6283  0
6284  0
6285  0
6286  1
6287  0
6288  0
6289  2
6290  1
6291  0
6292  2
6293  0
6294  0
6295  1
6296  0
6297  0
6298  0
6299  0
6300  0
6301  0
6302  0
6303  0
6304  1
6305  1
6306  0
6307  0
6308  2
6309  1
6310  2
6311  1
6312  1
6313  2
6314  0
6315  0
6316  0
6317  1
6318  0
6319  0
6320  0
6321  0
6322  0
6323  0
6324  0
6325  0
6326  0
6327  0
6328  0
6329  0
6330  0
6331  1
6332  0
6333  0
6334  0
6335  0
6336  2
6337  0
6338  1
6339  0
6340  0
6341  0
6342  1
6343  2
6344  0
6345  0
6346  0
6347  0
6348  0
6349  0
6350  1
6351  0
6352  0
6353  0
6354  2
6355  0
6356  2
6357  1
6358  1
6359  0
6360  1
6361  0
6362  0
6363  0
6364  0
6365  1
6366  0
6367  0
6368  0
6369  0
6370  2
6371  0
6372  0
6373  1
6374  0
6375  0
6376  0
6377  1
6378  2
6379  1
6380  0
6381  1
6382  0
6383  1
6384  1
6385  1
6386  0
6387  0
6388  1
6389  0
6390  1
6391  0
6392  0
6393  0
6394  1
6395  1
6396  0
6397  2
6398  0
6399  1
6400  2
6401  1
6402  1
6403  0
6404  0
6405  1
6406  0
6407  0
6408  1
6409  0
6410  0
6411  0
6412  0
6413  0
6414  0
6415  2
6416  0
6417  0
6418  0
6419  1
6420  0
6421  0
6422  0
6423  0
6424  0
6425  1
6426  1
6427  0
6428  2
6429  0
6430  1
6431  0
6432  0
6433  1
6434  0
6435  1
6436  0
6437  0
6438  0
6439  0
6440  0
6441  0
6442  1
6443  0
6444  0
6445  1
6446  0
6447  0
6448  0
6449  1
6450  1
6451  2
6452  1
6453  0
6454  0
6455  0
6456  0
6457  0
6458  0
6459  0
6460  0
6461  0
6462  0
6463  2
6464  0
6465  0
6466  0
6467  0
6468  1
6469  1
6470  0
6471  3
6472  2
6473  0
6474  1
6475  1
6476  1
6477  1
6478  1
6479  0
6480  0
6481  2
6482  0
6483  1
6484  1
6485  2
6486  0
6487  0
6488  0
6489  0
6490  0
6491  0
6492  0
6493  0
6494  0
6495  0
6496  1
6497  0
6498  0
6499  0
6500  1
6501  0
6502  0
6503  0
6504  0
6505  0
6506  0
6507  0
6508  0
6509  0
6510  0
6511  0
6512  0
6513  0
6514  0
6515  0
6516  0
6517  0
6518  0
6519  0
6520  1
6521  0
6522  0
6523  1
6524  0
6525  0
6526  0
6527  0
6528  1
6529  0
6530  0
6531  0
6532  0
6533  0
6534  0
6535  0
6536  0
6537  0
6538  0
6539  0
6540  1
6541  0
6542  0
6543  0
6544  0
6545  0
6546  1
6547  0
6548  1
6549  0
6550  1
6551  0
6552  4
6553  0
6554  0
6555  1
6556  1
6557  0
6558  0
6559  0
6560  0
6561  0
6562  1
6563  0
6564  2
6565  0
6566  0
6567  0
6568  0
6569  0
6570  1
6571  1
6572  0
6573  1
6574  0
6575  1
6576  0
6577  0
6578  0
6579  0
6580  2
6581  0
6582  0
6583  1
6584  1
6585  1
6586  0
6587  0
6588  1
6589  1
6590  0
6591  0
6592  0
6593  0
6594  2
6595  0
6596  0
6597  0
6598  0
6599  0
6600  3
6601  0
6602  1
6603  0
6604  0
6605  1
6606  0
6607  0
6608  0
6609  1
6610  0
6611  0
6612  0
6613  1
6614  0
6615  0
6616  0
6617  0
6618  1
6619  2
6620  3
6621  0
6622  0
6623  0
6624  1
6625  2
6626  0
6627  1
6628  1
6629  0
6630  0
6631  1
6632  0
6633  0
6634  0
6635  1
6636  0
6637  0
6638  0
6639  0
6640  0
6641  0
6642  0
6643  1
6644  0
6645  0
6646  0
6647  2
6648  0
6649  1
6650  0
6651  1
6652  0
6653  0
6654  0
6655  3
6656  1
6657  0
6658  1
6659  0
6660  0
6661  3
6662  1
6663  1
6664  0
6665  1
6666  0
6667  0
6668  0
6669  0
6670  0
6671  0
6672  1
6673  0
6674  1
6675  2
6676  0
6677  1
6678  0
6679  0
6680  1
6681  1
6682  0
6683  1
6684  2
6685  0
6686  0
6687  1
6688  1
6689  1
6690  0
6691  1
6692  0
6693  0
6694  0
6695  1
6696  0
6697  1
6698  0
6699  0
6700  1
6701  0
6702  0
6703  0
6704  0
6705  0
6706  0
6707  0
6708  0
6709  1
6710  0
6711  1
6712  1
6713  0
6714  1
6715  0
6716  1
6717  1
6718  1
6719  0
6720  1
6721  0
6722  3
6723  2
6724  2
6725  1
6726  0
6727  0
6728  0
6729  0
6730  1
6731  0
6732  1
6733  1
6734  1
6735  3
6736  1
6737  1
6738  0
6739  1
6740  0
6741  1
6742  0
6743  0
6744  0
6745  0
6746  1
6747  0
6748  1
6749  0
6750  2
6751  0
6752  0
6753  0
6754  2
6755  2
6756  0
6757  1
6758  0
6759  2
6760  0
6761  1
6762  1
6763  0
6764  0
6765  2
6766  0
6767  1
6768  1
6769  0
6770  0
6771  1
6772  0
6773  0
6774  1
6775  0
6776  0
6777  1
6778  0
6779  0
6780  1
6781  0
6782  1
6783  0
6784  1
6785  0
6786  0
6787  0
6788  0
6789  2
6790  1
6791  0
6792  0
6793  0
6794  2
6795  0
6796  1
6797  1
6798  1
6799  0
6800  2
6801  1
6802  1
6803  0
6804  1
6805  1
6806  2
6807  2
6808  0
6809  1
6810  0
6811  1
6812  2
6813  0
6814  1
6815  1
6816  0
6817  0
6818  0
6819  0
6820  0
6821  2
6822  2
6823  0
6824  0
6825  0
6826  1
6827  1
6828  1
6829  2
6830  0
6831  0
6832  3
6833  0
6834  1
6835  0
6836  2
6837  0
6838  0
6839  3
6840  0
6841  2
6842  0
6843  2
6844  1
6845  0
6846  0
6847  1
6848  1
6849  0
6850  1
6851  0
6852  0
6853  0
6854  0
6855  0
6856  1
6857  0
6858  0
6859  1
6860  2
6861  2
6862  1
6863  0
6864  0
6865  0
6866  0
6867  0
6868  0
6869  0
6870  0
6871  0
6872  0
6873  0
6874  0
6875  0
6876  2
6877  0
6878  0
6879  0
6880  0
6881  0
6882  0
6883  0
6884  0
6885  0
6886  0
6887  0
6888  0
6889  0
6890  0
6891  0
6892  0
6893  0
6894  0
6895  0
6896  0
6897  1
6898  0
6899  1
6900  1
6901  1
6902  0
6903  0
6904  1
6905  0
6906  1
6907  1
6908  0
6909  0
6910  1
6911  3
6912  2
6913  0
6914  1
6915  1
6916  0
6917  0
6918  1
6919  1
6920  0
6921  0
6922  0
6923  0
6924  1
6925  1
6926  0
6927  0
6928  1
6929  1
6930  0
6931  0
6932  0
6933  1
6934  0
6935  0
6936  0
6937  1
6938  0
6939  1
6940  1
6941  1
6942  3
6943  0
6944  1
6945  0
6946  0
6947  0
6948  2
6949  0
6950  0
6951  0
6952  0
6953  0
6954  0
6955  0
6956  0
6957  0
6958  2
6959  0
6960  0
6961  1
6962  1
6963  0
6964  1
6965  0
6966  1
6967  0
6968  0
6969  0
6970  0
6971  0
6972  0
6973  0
6974  0
6975  0
6976  1
6977  0
6978  1
6979  2
6980  0
6981  2
6982  0
6983  0
6984  1
6985  1
6986  0
6987  1
6988  0
6989  2
6990  0
6991  0
6992  1
6993  1
6994  0
6995  0
6996  2
6997  0
6998  0
6999  2
7000  0
7001  0
7002  0
7003  0
7004  0
7005  3
7006  0
7007  0
7008  1
7009  0
7010  2
7011  1
7012  0
7013  0
7014  0
7015  0
7016  1
7017  3
7018  0
7019  0
7020  0
7021  1
7022  0
7023  0
7024  1
7025  2
7026  2
7027  0
7028  1
7029  2
7030  0
7031  0
7032  0
7033  0
7034  1
7035  0
7036  0
7037  0
7038  1
7039  2
7040  0
7041  1
7042  1
7043  2
7044  2
7045  1
7046  2
7047  1
7048  0
7049  2
7050  1
7051  2
7052  0
7053  1
7054  0
7055  2
7056  0
7057  2
7058  1
7059  0
7060  0
7061  0
7062  0
7063  0
7064  0
7065  1
7066  1
7067  0
7068  2
7069  0
7070  3
7071  0
7072  0
7073  0
7074  2
7075  0
7076  0
7077  2
7078  2
7079  3
7080  1
7081  4
7082  0
7083  1
7084  0
7085  2
7086  0
7087  0
7088  1
7089  0
7090  0
7091  2
7092  0
7093  0
7094  1
7095  1
7096  0
7097  2
7098  0
7099  0
7100  2
7101  3
7102  1
7103  0
7104  4
7105  1
7106  1
7107  0
7108  0
7109  0
7110  2
7111  0
7112  1
7113  0
7114  0
7115  1
7116  0
7117  1
7118  2
7119  2
7120  2
7121  2
7122  3
7123  1
7124  1
7125  2
7126  0
7127  1
7128  0
7129  1
7130  1
7131  0
7132  1
7133  1
7134  0
7135  1
7136  2
7137  1
7138  1
7139  2
7140  0
7141  2
7142  0
7143  2
7144  1
7145  0
7146  2
7147  0
7148  3
7149  1
7150  1
7151  4
7152  1
7153  1
7154  0
7155  1
7156  1
7157  1
7158  4
7159  3
7160  0
7161  3
7162  2
7163  1
7164  1
7165  0
7166  2
7167  1
7168  1
7169  1
7170  1
7171  2
7172  1
7173  1
7174  2
7175  3
7176  1
7177  2
7178  3
7179  1
7180  1
7181  2
7182  3
7183  0
7184  2
7185  1
7186  4
7187  2
7188  6
7189  0
7190  4
7191  1
7192  6
7193  5
7194  1
7195  2
7196  2
7197  5
7198  1
7199  7
7200  0
7201  2
7202  7
7203  5
7204  6
7205  5
7206  3
7207  3
7208  3
7209  4
7210  2
7211  4
7212  6
7213  4
7214  5
7215  3
7216  12
7217  9
7218  5
7219  0
7220  8
7221  4
7222  4
7223  5
7224  7
7225  3
7226  6
7227  0
7228  5
7229  7
7230  8
7231  2
7232  6
7233  10
7234  6
7235  9
7236  3
7237  8
7238  8
7239  8
7240  8
7241  7
7242  5
7243  9
7244  15
7245  4
7246  6
7247  8
7248  4
7249  6
7250  9
7251  4
7252  14
7253  9
7254  10
7255  11
7256  10
7257  14
7258  10
7259  10
7260  10
7261  15
7262  8
7263  9
7264  9
7265  8
7266  8
7267  6
7268  10
7269  10
7270  5
7271  14
7272  16
7273  13
7274  5
7275  10
7276  15
7277  19
7278  9
7279  14
7280  17
7281  12
7282  15
7283  15
7284  18
7285  10
7286  15
7287  11
7288  15
7289  14
7290  15
7291  19
7292  13
7293  15
7294  12
7295  15
7296  20
7297  17
7298  17
7299  16
7300  19
7301  26
7302  24
7303  21
7304  19
7305  13
7306  19
7307  22
7308  14
7309  19
7310  19
7311  16
7312  20
7313  19
7314  23
7315  20
7316  25
7317  21
7318  23
7319  19
7320  29
7321  16
7322  16
7323  13
7324  22
7325  17
7326  31
7327  29
7328  21
7329  29
7330  25
7331  22
7332  17
7333  22
7334  22
7335  29
7336  21
7337  24
7338  25
7339  29
7340  25
7341  21
7342  20
7343  22
7344  33
7345  27
7346  26
7347  25
7348  21
7349  23
7350  29
7351  22
7352  28
7353  16
7354  26
7355  19
7356  23
7357  21
7358  27
7359  25
7360  27
7361  20
7362  23
7363  23
7364  22
7365  24
7366  17
7367  24
7368  21
7369  19
7370  24
7371  30
7372  26
7373  24
7374  27
7375  19
7376  25
7377  19
7378  17
7379  20
7380  23
7381  21
7382  14
7383  15
7384  22
7385  15
7386  14
7387  10
7388  18
7389  16
7390  11
7391  12
7392  16
7393  19
7394  10
7395  18
7396  10
7397  15
7398  11
7399  10
7400  16
7401  7
7402  14
7403  7
7404  7
7405  8
7406  4
7407  5
7408  11
7409  4
7410  9
7411  6
7412  3
7413  11
7414  4
7415  5
7416  4
7417  15
7418  1
7419  1
7420  7
7421  4
7422  3
7423  3
7424  3
7425  3
7426  2
7427  4
7428  3
7429  1
7430  2
7431  0
7432  3
7433  3
7434  4
7435  0
7436  0
7437  1
7438  0
7439  0
7440  1
7441  0
7442  1
7443  2
7444  0
7445  1
7446  2
7447  1
7448  1
7449  0
7450  2
7451  0
7452  2
7453  0
7454  0
7455  2
7456  0
7457  0
7458  0
7459  0
7460  0
7461  0
7462  1
7463  1
7464  1
7465  0
7466  0
7467  0
7468  0
7469  0
7470  0
7471  1
7472  0
7473  0
7474  1
7475  0
7476  0
7477  0
7478  1
7479  0
7480  0
7481  0
7482  1
7483  0
7484  2
7485  0
7486  0
7487  1
7488  0
7489  0
7490  1
7491  0
7492  0
7493  0
7494  0
7495  0
7496  1
7497  0
7498  1
7499  1
7500  1
7501  0
7502  0
7503  0
7504  1
7505  0
7506  0
7507  0
7508  1
7509  0
7510  0
7511  0
7512  0
7513  1
7514  1
7515  1
7516  0
7517  2
7518  0
7519  1
7520  0
7521  1
7522  0
7523  0
7524  1
7525  0
7526  0
7527  0
7528  0
7529  0
7530  0
7531  1
7532  1
7533  0
7534  0
7535  0
7536  0
7537  1
7538  0
7539  0
7540  2
7541  0
7542  0
7543  0
7544  1
7545  0
7546  1
7547  0
7548  0
7549  0
7550  0
7551  0
7552  0
7553  1
7554  1
7555  0
7556  1
7557  0
7558  0
7559  0
7560  2
7561  0
7562  0
7563  0
7564  1
7565  1
7566  0
7567  0
7568  0
7569  1
7570  0
7571  0
7572  0
7573  1
7574  1
7575  0
7576  0
7577  0
7578  1
7579  1
7580  0
7581  1
7582  0
7583  1
7584  0
7585  0
7586  0
7587  0
7588  0
7589  1
7590  1
7591  1
7592  1
7593  0
7594  1
7595  1
7596  1
7597  0
7598  0
7599  0
7600  0
7601  0
7602  0
7603  1
7604  1
7605  0
7606  2
7607  1
7608  0
7609  1
7610  0
7611  1
7612  0
7613  0
7614  1
7615  1
7616  2
7617  2
7618  0
7619  2
7620  1
7621  0
7622  2
7623  2
7624  0
7625  0
7626  1
7627  1
7628  0
7629  1
7630  1
7631  0
7632  1
7633  0
7634  1
7635  0
7636  0
7637  1
7638  3
7639  3
7640  0
7641  1
7642  1
7643  1
7644  0
7645  2
7646  0
7647  0
7648  2
7649  1
7650  3
7651  1
7652  2
7653  2
7654  1
7655  6
7656  1
7657  4
7658  3
7659  5
7660  1
7661  1
7662  2
7663  2
7664  1
7665  5
7666  2
7667  6
7668  7
7669  6
7670  6
7671  2
7672  6
7673  0
7674  8
7675  6
7676  6
7677  7
7678  6
7679  5
7680  3
7681  7
7682  7
7683  8
7684  8
7685  13
7686  9
7687  5
7688  7
7689  13
7690  6
7691  10
7692  9
7693  6
7694  8
7695  11
7696  7
7697  10
7698  8
7699  6
7700  8
7701  12
7702  13
7703  12
7704  16
7705  11
7706  7
7707  13
7708  18
7709  8
7710  11
7711  8
7712  5
7713  10
7714  10
7715  11
7716  14
7717  6
7718  9
7719  8
7720  7
7721  3
7722  5
7723  9
7724  6
7725  5
7726  5
7727  4
7728  3
7729  3
7730  5
7731  3
7732  6
7733  3
7734  2
7735  2
7736  1
7737  0
7738  2
7739  1
7740  0
7741  0
7742  2
7743  0
7744  0
7745  1
7746  0
7747  1
7748  0
7749  0
7750  0
7751  1
7752  1
7753  1
7754  0
7755  1
7756  0
7757  1
7758  0
7759  0
7760  0
7761  0
7762  1
7763  1
7764  0
7765  0
7766  1
7767  1
7768  1
7769  0
7770  0
7771  0
7772  0
7773  0
7774  0
7775  0
7776  0
7777  0
7778  0
7779  0
7780  0
7781  0
7782  0
7783  0
7784  0
7785  1
7786  0
7787  0
7788  0
7789  0
7790  0
7791  0
7792  0
7793  0
7794  0
7795  0
7796  0
7797  0
7798  0
7799  0
7800  0
7801  0
7802  0
7803  0
7804  0
7805  0
7806  0
7807  0
7808  0
7809  0
7810  0
7811  0
7812  0
7813  0
7814  0
7815  0
7816  0
7817  0
7818  0
7819  0
7820  0
7821  0
7822  0
7823  0
7824  0
7825  0
7826  0
7827  0
7828  0
7829  0
7830  0
7831  0
7832  0
7833  0
7834  0
7835  0
7836  0
7837  0
7838  0
7839  0
7840  0
7841  0
7842  0
7843  0
7844  0
7845  0
7846  0
7847  0
7848  1
7849  0
7850  0
7851  0
7852  0
7853  0
7854  0
7855  0
7856  0
7857  0
7858  0
7859  0
7860  0
7861  0
7862  0
7863  0
7864  0
7865  0
7866  0
7867  0
7868  0
7869  0
7870  0
7871  0
7872  0
7873  0
7874  0
7875  0
7876  0
7877  0
7878  0
7879  0
7880  0
7881  0
7882  0
7883  0
7884  0
7885  0
7886  0
7887  0
7888  0
7889  0
7890  0
7891  0
7892  0
7893  0
7894  0
7895  0
7896  0
7897  0
7898  0
7899  0
7900  0
7901  0
7902  0
7903  0
7904  0
7905  0
7906  0
7907  0
7908  0
7909  0
7910  0
7911  0
7912  0
7913  0
7914  0
7915  0
7916  0
7917  0
7918  0
7919  0
7920  0
7921  0
7922  0
7923  0
7924  0
7925  0
7926  0
7927  0
7928  0
7929  0
7930  0
7931  0
7932  0
7933  0
7934  0
7935  0
7936  0
7937  0
7938  0
7939  0
7940  0
7941  0
7942  0
7943  0
7944  0
7945  0
7946  0
7947  0
7948  0
7949  1
7950  0
7951  0
7952  0
7953  0
7954  0
7955  0
7956  0
7957  0
7958  0
7959  0
7960  0
7961  0
7962  0
7963  0
7964  0
7965  0
7966  0
7967  0
7968  0
7969  0
7970  0
7971  0
7972  0
7973  0
7974  0
7975  0
7976  0
7977  0
7978  0
7979  0
7980  0
7981  0
7982  0
7983  0
7984  0
7985  0
7986  0
7987  0
7988  0
7989  0
7990  0
7991  0
7992  0
7993  0
7994  0
7995  0
7996  0
7997  0
7998  0
7999  0
8000  0
8001  0
8002  0
8003  0
8004  0
8005  0
8006  0
8007  0
8008  0
8009  0
8010  0
8011  0
8012  0
8013  0
8014  0
8015  0
8016  0
8017  0
8018  0
8019  0
8020  0
8021  0
8022  0
8023  0
8024  0
8025  0
8026  0
8027  0
8028  0
8029  0
8030  0
8031  0
8032  0
8033  0
8034  0
8035  0
8036  0
8037  0
8038  0
8039  0
8040  0
8041  0
8042  0
8043  0
8044  0
8045  0
8046  0
8047  0
8048  0
8049  0
8050  0
8051  0
8052  0
8053  0
8054  0
8055  0
8056  0
8057  0
8058  0
8059  0
8060  0
8061  0
8062  0
8063  0
8064  0
8065  0
8066  0
8067  0
8068  0
8069  0
8070  0
8071  0
8072  0
8073  0
8074  0
8075  0
8076  0
8077  0
8078  0
8079  0
8080  0
8081  0
8082  0
8083  0
8084  0
8085  0
8086  0
8087  0
8088  0
8089  0
8090  0
8091  0
8092  0
8093  0
8094  0
8095  0
8096  0
8097  0
8098  0
8099  0
8100  0
8101  0
8102  0
8103  0
8104  0
8105  0
8106  0
8107  0
8108  0
8109  0
8110  0
8111  0
8112  0
8113  0
8114  0
8115  0
8116  0
8117  0
8118  0
8119  0
8120  0
8121  0
8122  0
8123  0
8124  0
8125  0
8126  0
8127  0
8128  0
8129  0
8130  0
8131  0
8132  0
8133  0
8134  0
8135  0
8136  0
8137  0
8138  0
8139  0
8140  0
8141  0
8142  0
8143  0
8144  0
8145  0
8146  0
8147  0
8148  0
8149  0
8150  0
8151  0
8152  0
8153  0
8154  0
8155  0
8156  0
8157  0
8158  0
8159  0
8160  0
8161  0
8162  0
8163  0
8164  0
8165  0
8166  0
8167  0
8168  0
8169  0
8170  0
8171  0
8172  0
8173  0
8174  0
8175  0
8176  0
8177  0
8178  0
8179  0
8180  0
8181  0
8182  0
8183  0
8184  0
8185  0
8186  0
8187  0
8188  0
8189  0
8190  0
8191  0
