0  898
1  0
2  0
3  0
4  0
5  0
6  0
7  0
8  0
9  0
10  0
11  0
12  0
13  0
14  0
15  0
16  0
17  0
18  0
19  0
20  0
21  0
22  0
23  0
24  0
25  0
26  0
27  0
28  0
29  0
30  0
31  0
32  0
33  0
34  0
35  0
36  0
37  0
38  0
39  0
40  0
41  0
42  0
43  0
44  0
45  0
46  0
47  0
48  0
49  0
50  0
51  0
52  0
53  0
54  0
55  0
56  0
57  0
58  0
59  0
60  0
61  0
62  0
63  0
64  0
65  0
66  0
67  0
68  0
69  0
70  0
71  0
72  0
73  0
74  0
75  0
76  0
77  0
78  0
79  0
80  0
81  0
82  0
83  0
84  0
85  0
86  0
87  0
88  0
89  0
90  0
91  0
92  0
93  0
94  0
95  0
96  0
97  0
98  0
99  0
100  0
101  0
102  0
103  0
104  0
105  0
106  0
107  0
108  0
109  0
110  0
111  0
112  0
113  0
114  0
115  0
116  0
117  0
118  0
119  0
120  0
121  0
122  0
123  0
124  0
125  0
126  0
127  0
128  0
129  0
130  0
131  0
132  0
133  0
134  0
135  0
136  0
137  0
138  0
139  0
140  0
141  0
142  0
143  0
144  0
145  0
146  0
147  0
148  0
149  0
150  0
151  0
152  0
153  0
154  0
155  0
156  0
157  0
158  0
159  0
160  0
161  0
162  0
163  0
164  0
165  0
166  0
167  0
168  0
169  0
170  0
171  0
172  0
173  0
174  0
175  0
176  0
177  0
178  0
179  0
180  0
181  0
182  0
183  0
184  0
185  0
186  0
187  0
188  0
189  0
190  0
191  0
192  0
193  0
194  0
195  0
196  0
197  0
198  0
199  0
200  0
201  0
202  0
203  0
204  0
205  0
206  0
207  0
208  0
209  0
210  0
211  0
212  0
213  0
214  0
215  0
216  0
217  0
218  0
219  0
220  0
221  0
222  0
223  0
224  0
225  0
226  0
227  0
228  0
229  0
230  0
231  0
232  0
233  0
234  0
235  0
236  0
237  0
238  0
239  0
240  0
241  0
242  0
243  0
244  0
245  0
246  0
247  0
248  0
249  0
250  0
251  0
252  0
253  0
254  0
255  0
256  0
257  0
258  0
259  0
260  0
261  0
262  0
263  0
264  0
265  0
266  0
267  0
268  0
269  0
270  0
271  0
272  0
273  0
274  0
275  0
276  0
277  0
278  0
279  0
280  0
281  0
282  0
283  0
284  0
285  0
286  0
287  0
288  0
289  0
290  0
291  0
292  0
293  0
294  0
295  0
296  0
297  0
298  0
299  0
300  0
301  0
302  0
303  0
304  0
305  0
306  0
307  0
308  0
309  0
310  0
311  0
312  0
313  0
314  0
315  0
316  0
317  0
318  0
319  0
320  0
321  0
322  0
323  0
324  0
325  0
326  0
327  0
328  0
329  0
330  0
331  0
332  0
333  0
334  0
335  0
336  0
337  0
338  0
339  0
340  0
341  0
342  0
343  0
344  0
345  0
346  0
347  0
348  0
349  0
350  0
351  0
352  0
353  0
354  0
355  0
356  0
357  0
358  0
359  0
360  0
361  0
362  0
363  0
364  0
365  0
366  0
367  0
368  0
369  0
370  0
371  0
372  0
373  0
374  0
375  0
376  0
377  0
378  0
379  0
380  0
381  0
382  0
383  0
384  0
385  0
386  0
387  0
388  0
389  0
390  0
391  0
392  0
393  0
394  0
395  0
396  0
397  0
398  0
399  0
400  0
401  0
402  0
403  0
404  0
405  0
406  0
407  0
408  0
409  0
410  0
411  0
412  0
413  0
414  0
415  0
416  0
417  0
418  0
419  0
420  0
421  0
422  0
423  0
424  0
425  0
426  0
427  0
428  0
429  0
430  0
431  0
432  0
433  0
434  0
435  0
436  0
437  0
438  0
439  0
440  0
441  0
442  0
443  0
444  0
445  0
446  0
447  0
448  0
449  0
450  0
451  0
452  0
453  0
454  0
455  0
456  0
457  0
458  0
459  0
460  0
461  0
462  0
463  0
464  0
465  0
466  0
467  0
468  0
469  0
470  0
471  0
472  0
473  0
474  0
475  0
476  0
477  0
478  0
479  0
480  0
481  0
482  0
483  0
484  0
485  0
486  0
487  0
488  0
489  0
490  0
491  0
492  0
493  0
494  0
495  0
496  0
497  0
498  0
499  0
500  0
501  0
502  0
503  0
504  0
505  0
506  0
507  0
508  0
509  0
510  0
511  0
512  0
513  0
514  0
515  0
516  0
517  0
518  0
519  0
520  0
521  0
522  0
523  0
524  0
525  0
526  0
527  0
528  0
529  0
530  0
531  0
532  0
533  0
534  0
535  0
536  0
537  0
538  0
539  0
540  0
541  0
542  0
543  0
544  0
545  0
546  0
547  0
548  0
549  0
550  0
551  0
552  0
553  0
554  0
555  0
556  0
557  0
558  0
559  0
560  0
561  0
562  0
563  0
564  0
565  0
566  0
567  0
568  2
569  0
570  0
571  2
572  4
573  80
574  147
575  158
576  171
577  143
578  140
579  119
580  140
581  146
582  163
583  116
584  119
585  145
586  129
587  137
588  154
589  155
590  149
591  127
592  159
593  151
594  137
595  139
596  132
597  136
598  137
599  140
600  138
601  136
602  127
603  119
604  136
605  130
606  117
607  132
608  155
609  142
610  128
611  117
612  126
613  115
614  120
615  126
616  144
617  128
618  132
619  135
620  122
621  101
622  138
623  134
624  125
625  113
626  112
627  112
628  113
629  114
630  92
631  117
632  103
633  98
634  116
635  110
636  128
637  131
638  99
639  128
640  132
641  105
642  98
643  110
644  103
645  83
646  119
647  111
648  112
649  106
650  109
651  101
652  120
653  104
654  108
655  99
656  91
657  105
658  115
659  86
660  83
661  108
662  98
663  94
664  93
665  92
666  92
667  89
668  82
669  86
670  103
671  99
672  85
673  96
674  78
675  84
676  83
677  111
678  76
679  93
680  91
681  94
682  102
683  88
684  112
685  92
686  82
687  88
688  87
689  81
690  88
691  85
692  85
693  88
694  85
695  82
696  86
697  77
698  73
699  90
700  67
701  71
702  57
703  83
704  82
705  78
706  69
707  77
708  70
709  67
710  64
711  66
712  62
713  58
714  62
715  46
716  70
717  79
718  67
719  60
720  53
721  51
722  61
723  55
724  66
725  62
726  58
727  63
728  59
729  63
730  49
731  78
732  73
733  54
734  53
735  49
736  58
737  77
738  54
739  64
740  68
741  66
742  68
743  51
744  68
745  49
746  65
747  56
748  63
749  58
750  59
751  56
752  59
753  60
754  64
755  58
756  59
757  62
758  53
759  45
760  53
761  59
762  56
763  47
764  58
765  52
766  53
767  48
768  60
769  57
770  54
771  43
772  46
773  65
774  47
775  56
776  50
777  58
778  47
779  49
780  57
781  48
782  53
783  42
784  43
785  47
786  49
787  38
788  35
789  35
790  37
791  52
792  45
793  48
794  44
795  58
796  49
797  42
798  46
799  36
800  41
801  37
802  51
803  62
804  32
805  38
806  41
807  33
808  42
809  42
810  48
811  40
812  37
813  39
814  40
815  31
816  46
817  35
818  45
819  31
820  33
821  39
822  33
823  46
824  30
825  28
826  30
827  46
828  47
829  40
830  45
831  44
832  30
833  37
834  57
835  36
836  44
837  27
838  36
839  47
840  28
841  35
842  45
843  30
844  32
845  32
846  28
847  32
848  38
849  27
850  33
851  27
852  36
853  38
854  27
855  33
856  33
857  33
858  32
859  38
860  37
861  36
862  21
863  36
864  26
865  29
866  31
867  25
868  31
869  29
870  21
871  34
872  35
873  34
874  31
875  27
876  20
877  20
878  29
879  27
880  30
881  22
882  32
883  30
884  21
885  16
886  30
887  24
888  27
889  21
890  23
891  30
892  16
893  24
894  24
895  28
896  25
897  28
898  24
899  20
900  25
901  16
902  22
903  29
904  27
905  17
906  25
907  23
908  22
909  24
910  25
911  23
912  35
913  20
914  21
915  22
916  28
917  26
918  19
919  18
920  21
921  24
922  27
923  28
924  20
925  22
926  23
927  23
928  18
929  24
930  16
931  15
932  24
933  19
934  16
935  16
936  19
937  19
938  11
939  13
940  13
941  11
942  13
943  21
944  23
945  13
946  24
947  19
948  16
949  22
950  14
951  20
952  17
953  19
954  18
955  17
956  15
957  18
958  20
959  15
960  17
961  22
962  12
963  18
964  14
965  15
966  18
967  16
968  12
969  20
970  15
971  17
972  16
973  20
974  14
975  13
976  15
977  16
978  15
979  13
980  12
981  10
982  12
983  14
984  18
985  12
986  12
987  13
988  12
989  17
990  12
991  15
992  8
993  13
994  7
995  8
996  16
997  7
998  16
999  8
1000  4
1001  8
1002  14
1003  15
1004  5
1005  9
1006  11
1007  10
1008  11
1009  12
1010  6
1011  12
1012  11
1013  8
1014  12
1015  12
1016  20
1017  12
1018  10
1019  12
1020  11
1021  7
1022  10
1023  13
1024  10
1025  6
1026  5
1027  11
1028  9
1029  8
1030  10
1031  11
1032  10
1033  12
1034  8
1035  10
1036  9
1037  5
1038  5
1039  12
1040  6
1041  10
1042  5
1043  8
1044  6
1045  5
1046  9
1047  10
1048  11
1049  9
1050  4
1051  8
1052  7
1053  9
1054  8
1055  8
1056  6
1057  9
1058  13
1059  17
1060  6
1061  9
1062  11
1063  8
1064  4
1065  9
1066  9
1067  7
1068  10
1069  9
1070  12
1071  6
1072  7
1073  11
1074  11
1075  9
1076  13
1077  8
1078  10
1079  11
1080  5
1081  6
1082  5
1083  7
1084  3
1085  5
1086  5
1087  7
1088  7
1089  6
1090  6
1091  10
1092  7
1093  14
1094  7
1095  8
1096  6
1097  9
1098  4
1099  3
1100  5
1101  7
1102  7
1103  1
1104  3
1105  7
1106  9
1107  1
1108  6
1109  9
1110  8
1111  4
1112  3
1113  5
1114  7
1115  5
1116  10
1117  4
1118  8
1119  13
1120  7
1121  6
1122  5
1123  8
1124  8
1125  3
1126  5
1127  12
1128  5
1129  10
1130  3
1131  4
1132  4
1133  9
1134  8
1135  5
1136  10
1137  5
1138  4
1139  4
1140  6
1141  7
1142  6
1143  6
1144  10
1145  8
1146  5
1147  3
1148  7
1149  3
1150  3
1151  3
1152  3
1153  5
1154  3
1155  0
1156  8
1157  7
1158  2
1159  3
1160  3
1161  2
1162  7
1163  13
1164  1
1165  2
1166  6
1167  5
1168  6
1169  1
1170  4
1171  4
1172  2
1173  2
1174  0
1175  5
1176  7
1177  5
1178  6
1179  1
1180  6
1181  6
1182  3
1183  3
1184  3
1185  9
1186  4
1187  5
1188  6
1189  7
1190  4
1191  9
1192  5
1193  5
1194  6
1195  4
1196  5
1197  5
1198  5
1199  4
1200  4
1201  5
1202  4
1203  6
1204  3
1205  4
1206  5
1207  10
1208  5
1209  6
1210  6
1211  5
1212  5
1213  5
1214  2
1215  5
1216  8
1217  4
1218  1
1219  1
1220  3
1221  6
1222  4
1223  3
1224  3
1225  3
1226  4
1227  10
1228  1
1229  4
1230  7
1231  3
1232  8
1233  8
1234  1
1235  4
1236  4
1237  3
1238  2
1239  3
1240  2
1241  3
1242  1
1243  6
1244  3
1245  2
1246  7
1247  2
1248  2
1249  0
1250  2
1251  2
1252  4
1253  2
1254  4
1255  3
1256  8
1257  5
1258  6
1259  5
1260  2
1261  8
1262  3
1263  6
1264  6
1265  9
1266  4
1267  6
1268  3
1269  3
1270  2
1271  3
1272  4
1273  3
1274  6
1275  3
1276  1
1277  4
1278  4
1279  3
1280  5
1281  4
1282  6
1283  4
1284  4
1285  3
1286  2
1287  3
1288  3
1289  4
1290  4
1291  2
1292  3
1293  0
1294  4
1295  0
1296  4
1297  2
1298  3
1299  6
1300  5
1301  3
1302  2
1303  6
1304  5
1305  0
1306  3
1307  3
1308  3
1309  3
1310  3
1311  5
1312  2
1313  3
1314  7
1315  3
1316  6
1317  5
1318  4
1319  3
1320  1
1321  4
1322  3
1323  8
1324  5
1325  3
1326  4
1327  4
1328  5
1329  6
1330  5
1331  4
1332  6
1333  1
1334  2
1335  4
1336  8
1337  2
1338  3
1339  2
1340  2
1341  2
1342  5
1343  8
1344  3
1345  1
1346  5
1347  0
1348  1
1349  2
1350  1
1351  8
1352  2
1353  4
1354  2
1355  5
1356  4
1357  2
1358  2
1359  3
1360  4
1361  7
1362  3
1363  4
1364  4
1365  1
1366  4
1367  3
1368  1
1369  1
1370  1
1371  4
1372  4
1373  1
1374  2
1375  3
1376  6
1377  2
1378  4
1379  5
1380  2
1381  1
1382  8
1383  1
1384  3
1385  3
1386  2
1387  8
1388  3
1389  5
1390  2
1391  1
1392  2
1393  6
1394  2
1395  4
1396  2
1397  2
1398  2
1399  2
1400  3
1401  3
1402  4
1403  5
1404  2
1405  5
1406  2
1407  2
1408  4
1409  8
1410  2
1411  2
1412  3
1413  4
1414  5
1415  0
1416  3
1417  1
1418  5
1419  5
1420  4
1421  0
1422  0
1423  3
1424  0
1425  1
1426  4
1427  2
1428  3
1429  4
1430  5
1431  2
1432  5
1433  6
1434  4
1435  4
1436  2
1437  2
1438  3
1439  4
1440  1
1441  2
1442  3
1443  2
1444  3
1445  1
1446  3
1447  3
1448  6
1449  5
1450  2
1451  3
1452  3
1453  4
1454  3
1455  2
1456  1
1457  6
1458  7
1459  3
1460  3
1461  2
1462  1
1463  4
1464  3
1465  2
1466  3
1467  2
1468  4
1469  3
1470  2
1471  5
1472  1
1473  0
1474  3
1475  3
1476  4
1477  5
1478  4
1479  3
1480  2
1481  3
1482  0
1483  2
1484  2
1485  4
1486  2
1487  1
1488  1
1489  2
1490  3
1491  0
1492  3
1493  2
1494  3
1495  1
1496  4
1497  3
1498  1
1499  3
1500  0
1501  0
1502  1
1503  2
1504  0
1505  3
1506  2
1507  3
1508  4
1509  1
1510  7
1511  5
1512  4
1513  6
1514  4
1515  1
1516  3
1517  1
1518  3
1519  2
1520  4
1521  3
1522  1
1523  1
1524  4
1525  3
1526  0
1527  7
1528  2
1529  4
1530  1
1531  2
1532  3
1533  2
1534  0
1535  0
1536  6
1537  2
1538  5
1539  2
1540  3
1541  2
1542  3
1543  2
1544  1
1545  5
1546  4
1547  5
1548  1
1549  3
1550  2
1551  3
1552  2
1553  1
1554  1
1555  1
1556  1
1557  2
1558  4
1559  3
1560  3
1561  4
1562  1
1563  4
1564  2
1565  6
1566  3
1567  3
1568  1
1569  4
1570  4
1571  1
1572  1
1573  0
1574  1
1575  3
1576  5
1577  3
1578  2
1579  1
1580  1
1581  3
1582  3
1583  1
1584  6
1585  1
1586  1
1587  5
1588  0
1589  1
1590  2
1591  3
1592  2
1593  0
1594  1
1595  4
1596  0
1597  3
1598  1
1599  1
1600  4
1601  1
1602  1
1603  1
1604  2
1605  4
1606  1
1607  3
1608  0
1609  0
1610  2
1611  5
1612  3
1613  0
1614  2
1615  3
1616  6
1617  1
1618  3
1619  4
1620  4
1621  3
1622  1
1623  1
1624  3
1625  1
1626  1
1627  4
1628  4
1629  1
1630  0
1631  4
1632  0
1633  4
1634  2
1635  3
1636  3
1637  2
1638  1
1639  3
1640  3
1641  0
1642  5
1643  3
1644  4
1645  4
1646  1
1647  5
1648  4
1649  2
1650  2
1651  2
1652  3
1653  1
1654  3
1655  1
1656  0
1657  2
1658  1
1659  1
1660  3
1661  1
1662  11
1663  1
1664  0
1665  6
1666  2
1667  0
1668  3
1669  7
1670  3
1671  4
1672  4
1673  3
1674  3
1675  2
1676  4
1677  1
1678  6
1679  3
1680  6
1681  3
1682  4
1683  3
1684  2
1685  2
1686  5
1687  1
1688  1
1689  4
1690  4
1691  2
1692  1
1693  5
1694  3
1695  1
1696  2
1697  5
1698  4
1699  3
1700  5
1701  0
1702  1
1703  1
1704  0
1705  0
1706  4
1707  3
1708  2
1709  1
1710  1
1711  0
1712  1
1713  1
1714  3
1715  0
1716  5
1717  3
1718  1
1719  2
1720  4
1721  4
1722  3
1723  1
1724  5
1725  1
1726  0
1727  3
1728  0
1729  1
1730  2
1731  3
1732  1
1733  3
1734  1
1735  5
1736  4
1737  4
1738  1
1739  0
1740  3
1741  1
1742  1
1743  1
1744  3
1745  1
1746  2
1747  4
1748  1
1749  0
1750  1
1751  4
1752  1
1753  3
1754  4
1755  1
1756  2
1757  1
1758  3
1759  2
1760  4
1761  3
1762  2
1763  4
1764  2
1765  2
1766  5
1767  2
1768  6
1769  1
1770  1
1771  2
1772  0
1773  2
1774  2
1775  3
1776  1
1777  2
1778  1
1779  1
1780  2
1781  2
1782  0
1783  3
1784  1
1785  2
1786  2
1787  4
1788  4
1789  1
1790  2
1791  0
1792  4
1793  0
1794  0
1795  3
1796  2
1797  0
1798  0
1799  1
1800  1
1801  1
1802  1
1803  1
1804  1
1805  2
1806  6
1807  3
1808  2
1809  0
1810  2
1811  3
1812  0
1813  1
1814  2
1815  1
1816  1
1817  1
1818  3
1819  0
1820  1
1821  0
1822  2
1823  4
1824  2
1825  2
1826  0
1827  1
1828  1
1829  3
1830  1
1831  1
1832  3
1833  4
1834  2
1835  2
1836  6
1837  2
1838  2
1839  3
1840  4
1841  3
1842  3
1843  2
1844  3
1845  2
1846  2
1847  1
1848  2
1849  4
1850  5
1851  1
1852  4
1853  2
1854  5
1855  2
1856  3
1857  1
1858  2
1859  1
1860  1
1861  0
1862  3
1863  3
1864  0
1865  2
1866  1
1867  1
1868  4
1869  1
1870  2
1871  0
1872  1
1873  2
1874  2
1875  0
1876  1
1877  4
1878  0
1879  3
1880  0
1881  2
1882  0
1883  7
1884  2
1885  1
1886  2
1887  1
1888  3
1889  2
1890  2
1891  2
1892  1
1893  0
1894  1
1895  0
1896  0
1897  3
1898  2
1899  0
1900  0
1901  0
1902  2
1903  2
1904  0
1905  0
1906  1
1907  0
1908  1
1909  1
1910  2
1911  2
1912  2
1913  0
1914  1
1915  3
1916  0
1917  3
1918  0
1919  0
1920  1
1921  1
1922  3
1923  1
1924  1
1925  3
1926  0
1927  0
1928  2
1929  3
1930  0
1931  1
1932  0
1933  1
1934  2
1935  2
1936  0
1937  1
1938  2
1939  4
1940  4
1941  1
1942  3
1943  2
1944  3
1945  0
1946  4
1947  1
1948  2
1949  1
1950  0
1951  2
1952  4
1953  0
1954  3
1955  2
1956  1
1957  0
1958  2
1959  2
1960  4
1961  1
1962  2
1963  1
1964  3
1965  2
1966  4
1967  1
1968  2
1969  6
1970  2
1971  1
1972  5
1973  7
1974  4
1975  1
1976  5
1977  2
1978  2
1979  4
1980  0
1981  0
1982  1
1983  4
1984  1
1985  3
1986  0
1987  2
1988  0
1989  4
1990  3
1991  2
1992  3
1993  1
1994  1
1995  2
1996  2
1997  1
1998  0
1999  0
2000  1
2001  3
2002  1
2003  0
2004  0
2005  1
2006  3
2007  1
2008  2
2009  1
2010  3
2011  3
2012  2
2013  4
2014  1
2015  1
2016  0
2017  2
2018  1
2019  1
2020  1
2021  1
2022  3
2023  0
2024  4
2025  2
2026  4
2027  1
2028  2
2029  1
2030  1
2031  3
2032  0
2033  1
2034  3
2035  0
2036  0
2037  0
2038  0
2039  3
2040  0
2041  1
2042  1
2043  0
2044  3
2045  1
2046  2
2047  2
2048  1
2049  2
2050  1
2051  1
2052  2
2053  2
2054  2
2055  1
2056  1
2057  0
2058  2
2059  0
2060  0
2061  1
2062  0
2063  0
2064  1
2065  2
2066  0
2067  3
2068  1
2069  0
2070  1
2071  2
2072  3
2073  1
2074  0
2075  2
2076  2
2077  1
2078  1
2079  0
2080  1
2081  0
2082  0
2083  3
2084  0
2085  2
2086  0
2087  1
2088  2
2089  1
2090  2
2091  0
2092  1
2093  1
2094  4
2095  1
2096  1
2097  1
2098  2
2099  1
2100  1
2101  0
2102  3
2103  0
2104  1
2105  2
2106  0
2107  3
2108  0
2109  0
2110  2
2111  2
2112  0
2113  4
2114  1
2115  1
2116  3
2117  0
2118  3
2119  0
2120  0
2121  1
2122  1
2123  0
2124  2
2125  5
2126  1
2127  1
2128  0
2129  2
2130  0
2131  2
2132  2
2133  2
2134  2
2135  2
2136  2
2137  2
2138  1
2139  2
2140  2
2141  1
2142  1
2143  1
2144  2
2145  0
2146  1
2147  2
2148  0
2149  1
2150  2
2151  0
2152  2
2153  1
2154  1
2155  1
2156  1
2157  1
2158  0
2159  0
2160  2
2161  3
2162  1
2163  0
2164  1
2165  5
2166  5
2167  0
2168  1
2169  2
2170  1
2171  1
2172  0
2173  2
2174  0
2175  2
2176  1
2177  0
2178  0
2179  1
2180  2
2181  2
2182  2
2183  0
2184  0
2185  0
2186  0
2187  0
2188  1
2189  3
2190  1
2191  1
2192  2
2193  3
2194  0
2195  3
2196  3
2197  2
2198  0
2199  4
2200  0
2201  0
2202  3
2203  2
2204  0
2205  1
2206  1
2207  1
2208  2
2209  3
2210  0
2211  2
2212  0
2213  3
2214  1
2215  1
2216  0
2217  2
2218  1
2219  0
2220  1
2221  0
2222  1
2223  2
2224  1
2225  2
2226  1
2227  2
2228  1
2229  1
2230  0
2231  2
2232  2
2233  3
2234  1
2235  1
2236  1
2237  1
2238  1
2239  2
2240  0
2241  1
2242  0
2243  0
2244  0
2245  0
2246  2
2247  3
2248  0
2249  3
2250  4
2251  0
2252  2
2253  1
2254  1
2255  1
2256  0
2257  5
2258  0
2259  0
2260  0
2261  2
2262  0
2263  0
2264  2
2265  0
2266  0
2267  1
2268  2
2269  0
2270  0
2271  3
2272  3
2273  2
2274  2
2275  0
2276  1
2277  0
2278  1
2279  1
2280  3
2281  3
2282  0
2283  0
2284  3
2285  1
2286  0
2287  4
2288  1
2289  2
2290  2
2291  1
2292  2
2293  1
2294  0
2295  0
2296  1
2297  2
2298  1
2299  0
2300  1
2301  2
2302  1
2303  1
2304  1
2305  2
2306  0
2307  2
2308  0
2309  1
2310  1
2311  3
2312  2
2313  1
2314  1
2315  1
2316  2
2317  1
2318  1
2319  0
2320  2
2321  1
2322  1
2323  0
2324  1
2325  0
2326  3
2327  1
2328  3
2329  2
2330  1
2331  1
2332  1
2333  3
2334  2
2335  1
2336  2
2337  1
2338  1
2339  1
2340  0
2341  1
2342  1
2343  1
2344  3
2345  3
2346  1
2347  2
2348  0
2349  0
2350  1
2351  2
2352  2
2353  0
2354  1
2355  0
2356  1
2357  1
2358  0
2359  1
2360  0
2361  0
2362  1
2363  1
2364  2
2365  0
2366  1
2367  4
2368  2
2369  2
2370  1
2371  1
2372  2
2373  0
2374  3
2375  0
2376  3
2377  0
2378  3
2379  3
2380  2
2381  1
2382  1
2383  2
2384  3
2385  3
2386  3
2387  2
2388  1
2389  2
2390  1
2391  0
2392  2
2393  3
2394  2
2395  4
2396  2
2397  3
2398  2
2399  1
2400  6
2401  1
2402  1
2403  3
2404  1
2405  2
2406  0
2407  1
2408  0
2409  2
2410  1
2411  2
2412  0
2413  0
2414  0
2415  1
2416  1
2417  2
2418  2
2419  1
2420  0
2421  3
2422  0
2423  4
2424  1
2425  1
2426  1
2427  2
2428  2
2429  2
2430  1
2431  1
2432  0
2433  1
2434  1
2435  0
2436  2
2437  2
2438  1
2439  0
2440  1
2441  1
2442  1
2443  1
2444  1
2445  0
2446  1
2447  1
2448  4
2449  0
2450  1
2451  2
2452  5
2453  1
2454  1
2455  1
2456  0
2457  0
2458  1
2459  1
2460  0
2461  0
2462  0
2463  2
2464  2
2465  1
2466  2
2467  0
2468  2
2469  0
2470  2
2471  0
2472  1
2473  0
2474  2
2475  1
2476  2
2477  0
2478  1
2479  0
2480  0
2481  1
2482  1
2483  3
2484  0
2485  2
2486  1
2487  0
2488  3
2489  0
2490  3
2491  0
2492  0
2493  0
2494  3
2495  2
2496  2
2497  1
2498  2
2499  3
2500  0
2501  1
2502  1
2503  0
2504  1
2505  1
2506  2
2507  0
2508  2
2509  2
2510  0
2511  0
2512  1
2513  0
2514  1
2515  1
2516  0
2517  0
2518  2
2519  0
2520  0
2521  3
2522  0
2523  0
2524  1
2525  0
2526  0
2527  2
2528  1
2529  1
2530  1
2531  2
2532  1
2533  4
2534  0
2535  0
2536  8
2537  1
2538  1
2539  1
2540  2
2541  1
2542  1
2543  0
2544  1
2545  0
2546  0
2547  1
2548  1
2549  0
2550  3
2551  2
2552  0
2553  0
2554  3
2555  1
2556  0
2557  1
2558  1
2559  0
2560  1
2561  1
2562  2
2563  1
2564  0
2565  3
2566  2
2567  2
2568  0
2569  0
2570  0
2571  0
2572  0
2573  1
2574  1
2575  1
2576  0
2577  1
2578  3
2579  1
2580  1
2581  2
2582  3
2583  1
2584  2
2585  1
2586  0
2587  3
2588  1
2589  0
2590  3
2591  2
2592  0
2593  0
2594  1
2595  0
2596  0
2597  1
2598  0
2599  0
2600  1
2601  1
2602  2
2603  1
2604  1
2605  0
2606  0
2607  0
2608  1
2609  3
2610  1
2611  1
2612  1
2613  2
2614  0
2615  2
2616  0
2617  1
2618  1
2619  3
2620  0
2621  0
2622  2
2623  2
2624  3
2625  1
2626  0
2627  1
2628  0
2629  1
2630  1
2631  3
2632  1
2633  3
2634  3
2635  1
2636  1
2637  0
2638  0
2639  0
2640  0
2641  0
2642  1
2643  1
2644  1
2645  0
2646  0
2647  1
2648  3
2649  0
2650  3
2651  0
2652  0
2653  0
2654  2
2655  1
2656  3
2657  1
2658  0
2659  2
2660  0
2661  0
2662  2
2663  0
2664  1
2665  1
2666  0
2667  0
2668  1
2669  0
2670  1
2671  1
2672  3
2673  0
2674  3
2675  0
2676  3
2677  2
2678  2
2679  1
2680  1
2681  0
2682  0
2683  0
2684  1
2685  2
2686  2
2687  1
2688  1
2689  0
2690  0
2691  1
2692  1
2693  0
2694  1
2695  0
2696  0
2697  1
2698  1
2699  1
2700  0
2701  0
2702  0
2703  0
2704  0
2705  0
2706  0
2707  0
2708  2
2709  2
2710  1
2711  2
2712  0
2713  0
2714  2
2715  2
2716  0
2717  2
2718  2
2719  1
2720  1
2721  2
2722  1
2723  0
2724  2
2725  1
2726  1
2727  1
2728  1
2729  2
2730  1
2731  1
2732  3
2733  0
2734  0
2735  3
2736  1
2737  2
2738  2
2739  1
2740  1
2741  1
2742  0
2743  1
2744  0
2745  0
2746  1
2747  0
2748  1
2749  0
2750  2
2751  1
2752  1
2753  3
2754  1
2755  2
2756  1
2757  2
2758  1
2759  2
2760  4
2761  1
2762  2
2763  1
2764  3
2765  0
2766  1
2767  1
2768  0
2769  0
2770  0
2771  2
2772  2
2773  2
2774  0
2775  0
2776  1
2777  0
2778  1
2779  1
2780  1
2781  0
2782  1
2783  2
2784  0
2785  0
2786  3
2787  2
2788  0
2789  2
2790  1
2791  0
2792  0
2793  0
2794  2
2795  2
2796  0
2797  1
2798  0
2799  1
2800  0
2801  0
2802  3
2803  1
2804  4
2805  1
2806  3
2807  1
2808  1
2809  0
2810  2
2811  3
2812  3
2813  0
2814  1
2815  1
2816  1
2817  0
2818  0
2819  1
2820  1
2821  2
2822  1
2823  4
2824  1
2825  3
2826  1
2827  1
2828  2
2829  3
2830  1
2831  2
2832  0
2833  1
2834  5
2835  2
2836  0
2837  1
2838  2
2839  2
2840  2
2841  1
2842  2
2843  1
2844  0
2845  1
2846  0
2847  2
2848  2
2849  1
2850  0
2851  1
2852  1
2853  1
2854  2
2855  1
2856  0
2857  2
2858  1
2859  3
2860  1
2861  0
2862  0
2863  1
2864  0
2865  1
2866  1
2867  3
2868  1
2869  3
2870  1
2871  4
2872  3
2873  2
2874  1
2875  2
2876  1
2877  3
2878  1
2879  1
2880  2
2881  2
2882  0
2883  1
2884  3
2885  5
2886  2
2887  2
2888  1
2889  3
2890  1
2891  2
2892  2
2893  1
2894  1
2895  0
2896  0
2897  0
2898  2
2899  3
2900  1
2901  3
2902  1
2903  4
2904  0
2905  2
2906  4
2907  1
2908  2
2909  6
2910  2
2911  1
2912  3
2913  1
2914  1
2915  1
2916  2
2917  2
2918  2
2919  1
2920  1
2921  2
2922  3
2923  2
2924  2
2925  3
2926  3
2927  2
2928  1
2929  2
2930  3
2931  0
2932  5
2933  1
2934  6
2935  2
2936  2
2937  1
2938  4
2939  2
2940  1
2941  3
2942  1
2943  3
2944  1
2945  0
2946  1
2947  1
2948  2
2949  3
2950  3
2951  1
2952  2
2953  3
2954  2
2955  4
2956  0
2957  5
2958  1
2959  1
2960  1
2961  4
2962  0
2963  1
2964  2
2965  1
2966  0
2967  1
2968  1
2969  0
2970  4
2971  2
2972  1
2973  0
2974  0
2975  3
2976  1
2977  2
2978  0
2979  0
2980  0
2981  2
2982  4
2983  3
2984  0
2985  1
2986  0
2987  0
2988  1
2989  4
2990  2
2991  2
2992  1
2993  4
2994  1
2995  2
2996  3
2997  4
2998  1
2999  2
3000  2
3001  3
3002  2
3003  2
3004  0
3005  5
3006  1
3007  1
3008  1
3009  5
3010  1
3011  1
3012  2
3013  2
3014  2
3015  0
3016  3
3017  1
3018  0
3019  2
3020  0
3021  2
3022  2
3023  1
3024  0
3025  1
3026  2
3027  0
3028  3
3029  0
3030  0
3031  0
3032  2
3033  2
3034  0
3035  2
3036  3
3037  2
3038  0
3039  0
3040  0
3041  0
3042  1
3043  3
3044  1
3045  0
3046  0
3047  0
3048  2
3049  2
3050  3
3051  3
3052  1
3053  5
3054  2
3055  1
3056  0
3057  0
3058  1
3059  1
3060  1
3061  2
3062  1
3063  3
3064  1
3065  1
3066  3
3067  3
3068  1
3069  1
3070  1
3071  3
3072  0
3073  0
3074  1
3075  0
3076  2
3077  2
3078  1
3079  3
3080  0
3081  1
3082  1
3083  3
3084  1
3085  0
3086  1
3087  2
3088  2
3089  1
3090  2
3091  2
3092  1
3093  2
3094  3
3095  2
3096  1
3097  2
3098  2
3099  1
3100  2
3101  1
3102  1
3103  0
3104  0
3105  1
3106  0
3107  4
3108  2
3109  1
3110  1
3111  1
3112  0
3113  3
3114  3
3115  2
3116  0
3117  1
3118  1
3119  1
3120  0
3121  3
3122  1
3123  1
3124  3
3125  3
3126  1
3127  1
3128  1
3129  1
3130  4
3131  4
3132  1
3133  3
3134  2
3135  0
3136  2
3137  1
3138  4
3139  3
3140  1
3141  1
3142  2
3143  1
3144  2
3145  1
3146  3
3147  2
3148  0
3149  3
3150  3
3151  3
3152  4
3153  2
3154  5
3155  2
3156  1
3157  2
3158  1
3159  3
3160  2
3161  2
3162  1
3163  1
3164  2
3165  2
3166  2
3167  1
3168  3
3169  1
3170  2
3171  1
3172  1
3173  2
3174  0
3175  1
3176  2
3177  5
3178  0
3179  0
3180  2
3181  0
3182  0
3183  0
3184  0
3185  1
3186  2
3187  1
3188  0
3189  0
3190  3
3191  1
3192  0
3193  0
3194  0
3195  0
3196  2
3197  1
3198  2
3199  3
3200  1
3201  2
3202  2
3203  1
3204  1
3205  3
3206  1
3207  3
3208  1
3209  2
3210  0
3211  1
3212  1
3213  1
3214  2
3215  0
3216  1
3217  1
3218  1
3219  1
3220  2
3221  2
3222  4
3223  4
3224  5
3225  1
3226  1
3227  0
3228  1
3229  2
3230  2
3231  0
3232  0
3233  3
3234  2
3235  2
3236  0
3237  2
3238  0
3239  3
3240  0
3241  1
3242  2
3243  2
3244  1
3245  0
3246  1
3247  2
3248  0
3249  2
3250  0
3251  0
3252  3
3253  2
3254  2
3255  1
3256  1
3257  0
3258  3
3259  3
3260  2
3261  2
3262  2
3263  0
3264  3
3265  0
3266  2
3267  1
3268  0
3269  1
3270  2
3271  5
3272  1
3273  1
3274  3
3275  1
3276  0
3277  2
3278  1
3279  4
3280  1
3281  0
3282  2
3283  3
3284  2
3285  0
3286  1
3287  2
3288  2
3289  4
3290  1
3291  3
3292  2
3293  3
3294  4
3295  2
3296  1
3297  1
3298  0
3299  1
3300  2
3301  1
3302  3
3303  1
3304  1
3305  0
3306  3
3307  3
3308  0
3309  2
3310  4
3311  0
3312  0
3313  3
3314  0
3315  0
3316  4
3317  3
3318  1
3319  2
3320  1
3321  0
3322  0
3323  2
3324  0
3325  1
3326  1
3327  0
3328  3
3329  0
3330  0
3331  1
3332  2
3333  1
3334  0
3335  1
3336  0
3337  1
3338  1
3339  1
3340  1
3341  1
3342  1
3343  4
3344  0
3345  0
3346  2
3347  2
3348  1
3349  1
3350  2
3351  0
3352  2
3353  0
3354  1
3355  2
3356  1
3357  0
3358  2
3359  2
3360  4
3361  3
3362  2
3363  3
3364  1
3365  2
3366  2
3367  2
3368  2
3369  1
3370  0
3371  2
3372  3
3373  2
3374  1
3375  3
3376  2
3377  2
3378  0
3379  1
3380  3
3381  3
3382  1
3383  2
3384  3
3385  2
3386  1
3387  2
3388  1
3389  2
3390  3
3391  3
3392  4
3393  2
3394  2
3395  2
3396  0
3397  2
3398  3
3399  1
3400  1
3401  1
3402  0
3403  0
3404  0
3405  2
3406  0
3407  0
3408  1
3409  4
3410  4
3411  3
3412  2
3413  2
3414  3
3415  0
3416  0
3417  0
3418  0
3419  1
3420  2
3421  2
3422  1
3423  2
3424  0
3425  1
3426  2
3427  0
3428  0
3429  3
3430  1
3431  1
3432  3
3433  0
3434  2
3435  0
3436  1
3437  2
3438  1
3439  3
3440  1
3441  1
3442  1
3443  2
3444  1
3445  2
3446  4
3447  1
3448  1
3449  1
3450  1
3451  3
3452  0
3453  3
3454  1
3455  0
3456  2
3457  0
3458  0
3459  1
3460  3
3461  1
3462  4
3463  3
3464  2
3465  0
3466  2
3467  0
3468  0
3469  1
3470  3
3471  3
3472  3
3473  2
3474  4
3475  2
3476  2
3477  1
3478  2
3479  2
3480  0
3481  1
3482  3
3483  2
3484  1
3485  3
3486  4
3487  0
3488  1
3489  0
3490  1
3491  3
3492  0
3493  2
3494  3
3495  0
3496  1
3497  2
3498  2
3499  0
3500  2
3501  2
3502  1
3503  2
3504  2
3505  2
3506  2
3507  1
3508  1
3509  0
3510  0
3511  0
3512  3
3513  0
3514  1
3515  1
3516  2
3517  2
3518  0
3519  0
3520  0
3521  2
3522  1
3523  0
3524  2
3525  1
3526  0
3527  2
3528  2
3529  1
3530  1
3531  2
3532  0
3533  0
3534  1
3535  2
3536  0
3537  3
3538  0
3539  4
3540  2
3541  1
3542  1
3543  3
3544  0
3545  0
3546  0
3547  1
3548  2
3549  3
3550  5
3551  2
3552  0
3553  0
3554  2
3555  2
3556  0
3557  1
3558  1
3559  0
3560  1
3561  2
3562  0
3563  0
3564  4
3565  1
3566  1
3567  2
3568  1
3569  1
3570  0
3571  2
3572  0
3573  2
3574  1
3575  0
3576  0
3577  2
3578  1
3579  4
3580  2
3581  1
3582  1
3583  2
3584  0
3585  0
3586  1
3587  3
3588  0
3589  1
3590  2
3591  2
3592  1
3593  2
3594  0
3595  1
3596  3
3597  2
3598  1
3599  2
3600  1
3601  0
3602  0
3603  1
3604  0
3605  1
3606  2
3607  0
3608  2
3609  1
3610  1
3611  2
3612  0
3613  2
3614  2
3615  0
3616  2
3617  1
3618  3
3619  0
3620  2
3621  0
3622  1
3623  1
3624  0
3625  3
3626  1
3627  2
3628  3
3629  1
3630  1
3631  0
3632  4
3633  1
3634  1
3635  2
3636  1
3637  5
3638  0
3639  3
3640  3
3641  0
3642  1
3643  0
3644  0
3645  0
3646  0
3647  1
3648  3
3649  0
3650  3
3651  2
3652  3
3653  1
3654  1
3655  0
3656  0
3657  1
3658  0
3659  0
3660  0
3661  1
3662  2
3663  0
3664  1
3665  2
3666  2
3667  0
3668  0
3669  0
3670  0
3671  1
3672  2
3673  0
3674  3
3675  1
3676  2
3677  4
3678  3
3679  0
3680  0
3681  1
3682  2
3683  2
3684  1
3685  0
3686  1
3687  1
3688  0
3689  0
3690  2
3691  1
3692  1
3693  1
3694  5
3695  1
3696  1
3697  1
3698  0
3699  5
3700  1
3701  0
3702  1
3703  1
3704  1
3705  1
3706  0
3707  1
3708  1
3709  1
3710  1
3711  1
3712  0
3713  0
3714  2
3715  2
3716  1
3717  1
3718  1
3719  2
3720  0
3721  1
3722  1
3723  1
3724  0
3725  1
3726  1
3727  0
3728  1
3729  1
3730  1
3731  1
3732  2
3733  1
3734  1
3735  0
3736  1
3737  2
3738  1
3739  0
3740  1
3741  0
3742  2
3743  2
3744  0
3745  0
3746  2
3747  2
3748  3
3749  3
3750  2
3751  1
3752  1
3753  2
3754  4
3755  1
3756  2
3757  2
3758  1
3759  2
3760  1
3761  1
3762  3
3763  0
3764  1
3765  0
3766  0
3767  0
3768  0
3769  3
3770  3
3771  0
3772  0
3773  2
3774  1
3775  0
3776  0
3777  0
3778  1
3779  2
3780  1
3781  0
3782  1
3783  0
3784  2
3785  1
3786  0
3787  0
3788  0
3789  0
3790  1
3791  2
3792  0
3793  2
3794  1
3795  1
3796  0
3797  3
3798  1
3799  1
3800  2
3801  0
3802  0
3803  2
3804  0
3805  0
3806  0
3807  2
3808  0
3809  2
3810  0
3811  0
3812  1
3813  0
3814  2
3815  0
3816  2
3817  2
3818  0
3819  1
3820  0
3821  2
3822  1
3823  1
3824  0
3825  0
3826  1
3827  1
3828  2
3829  1
3830  0
3831  1
3832  0
3833  3
3834  1
3835  1
3836  1
3837  0
3838  0
3839  0
3840  0
3841  1
3842  1
3843  2
3844  1
3845  2
3846  1
3847  1
3848  0
3849  1
3850  0
3851  0
3852  0
3853  0
3854  0
3855  0
3856  1
3857  0
3858  0
3859  2
3860  1
3861  2
3862  0
3863  1
3864  0
3865  0
3866  1
3867  1
3868  1
3869  0
3870  4
3871  1
3872  1
3873  0
3874  1
3875  3
3876  0
3877  0
3878  1
3879  1
3880  0
3881  1
3882  2
3883  0
3884  0
3885  0
3886  0
3887  1
3888  0
3889  2
3890  2
3891  1
3892  0
3893  1
3894  3
3895  0
3896  2
3897  0
3898  2
3899  0
3900  0
3901  0
3902  2
3903  1
3904  1
3905  0
3906  1
3907  2
3908  2
3909  1
3910  1
3911  0
3912  1
3913  0
3914  2
3915  0
3916  2
3917  1
3918  1
3919  0
3920  4
3921  2
3922  2
3923  1
3924  2
3925  4
3926  0
3927  0
3928  2
3929  0
3930  0
3931  1
3932  1
3933  1
3934  0
3935  0
3936  2
3937  0
3938  0
3939  1
3940  1
3941  0
3942  3
3943  0
3944  0
3945  0
3946  1
3947  0
3948  0
3949  2
3950  1
3951  1
3952  0
3953  1
3954  0
3955  0
3956  1
3957  2
3958  1
3959  0
3960  1
3961  1
3962  0
3963  0
3964  1
3965  1
3966  1
3967  1
3968  1
3969  3
3970  0
3971  0
3972  1
3973  0
3974  1
3975  1
3976  0
3977  0
3978  1
3979  2
3980  1
3981  1
3982  1
3983  1
3984  2
3985  0
3986  1
3987  0
3988  0
3989  0
3990  2
3991  1
3992  0
3993  1
3994  1
3995  2
3996  0
3997  2
3998  0
3999  2
4000  1
4001  2
4002  1
4003  1
4004  0
4005  0
4006  1
4007  0
4008  2
4009  1
4010  0
4011  1
4012  0
4013  0
4014  1
4015  1
4016  1
4017  0
4018  0
4019  0
4020  0
4021  0
4022  0
4023  1
4024  2
4025  0
4026  1
4027  1
4028  1
4029  1
4030  0
4031  0
4032  0
4033  1
4034  0
4035  0
4036  0
4037  0
4038  0
4039  1
4040  1
4041  0
4042  1
4043  1
4044  1
4045  1
4046  1
4047  0
4048  0
4049  2
4050  1
4051  1
4052  1
4053  0
4054  2
4055  0
4056  2
4057  0
4058  0
4059  1
4060  1
4061  2
4062  1
4063  0
4064  2
4065  0
4066  0
4067  0
4068  0
4069  1
4070  0
4071  0
4072  1
4073  0
4074  2
4075  1
4076  0
4077  0
4078  0
4079  1
4080  0
4081  0
4082  2
4083  1
4084  2
4085  1
4086  0
4087  3
4088  0
4089  0
4090  1
4091  0
4092  2
4093  0
4094  0
4095  0
4096  1
4097  0
4098  0
4099  0
4100  1
4101  0
4102  1
4103  0
4104  2
4105  2
4106  2
4107  1
4108  1
4109  0
4110  0
4111  0
4112  0
4113  0
4114  1
4115  1
4116  0
4117  0
4118  0
4119  2
4120  0
4121  0
4122  2
4123  1
4124  0
4125  0
4126  0
4127  0
4128  1
4129  1
4130  2
4131  0
4132  3
4133  1
4134  2
4135  0
4136  0
4137  2
4138  0
4139  0
4140  0
4141  0
4142  1
4143  1
4144  2
4145  0
4146  2
4147  1
4148  0
4149  3
4150  1
4151  0
4152  0
4153  0
4154  2
4155  0
4156  0
4157  1
4158  1
4159  1
4160  1
4161  1
4162  0
4163  0
4164  1
4165  1
4166  1
4167  0
4168  1
4169  0
4170  2
4171  2
4172  0
4173  2
4174  0
4175  1
4176  2
4177  0
4178  1
4179  4
4180  2
4181  2
4182  2
4183  2
4184  3
4185  0
4186  1
4187  2
4188  2
4189  2
4190  1
4191  0
4192  5
4193  0
4194  1
4195  0
4196  4
4197  2
4198  2
4199  1
4200  3
4201  2
4202  2
4203  3
4204  1
4205  1
4206  1
4207  3
4208  2
4209  3
4210  4
4211  3
4212  1
4213  0
4214  2
4215  0
4216  0
4217  2
4218  4
4219  1
4220  0
4221  1
4222  1
4223  1
4224  0
4225  0
4226  2
4227  0
4228  0
4229  2
4230  2
4231  2
4232  0
4233  3
4234  1
4235  1
4236  2
4237  0
4238  0
4239  0
4240  0
4241  2
4242  0
4243  0
4244  2
4245  1
4246  0
4247  3
4248  3
4249  0
4250  1
4251  1
4252  1
4253  2
4254  1
4255  0
4256  1
4257  1
4258  0
4259  3
4260  1
4261  2
4262  0
4263  0
4264  1
4265  2
4266  0
4267  0
4268  2
4269  0
4270  0
4271  0
4272  1
4273  0
4274  0
4275  0
4276  1
4277  0
4278  0
4279  1
4280  1
4281  2
4282  2
4283  2
4284  0
4285  0
4286  1
4287  2
4288  2
4289  0
4290  0
4291  3
4292  2
4293  1
4294  1
4295  1
4296  1
4297  3
4298  2
4299  1
4300  0
4301  0
4302  1
4303  1
4304  1
4305  0
4306  2
4307  0
4308  2
4309  0
4310  0
4311  4
4312  2
4313  0
4314  0
4315  1
4316  3
4317  1
4318  1
4319  0
4320  0
4321  1
4322  0
4323  3
4324  1
4325  1
4326  1
4327  0
4328  1
4329  2
4330  1
4331  0
4332  1
4333  1
4334  3
4335  2
4336  1
4337  2
4338  1
4339  0
4340  1
4341  0
4342  0
4343  1
4344  1
4345  0
4346  0
4347  0
4348  0
4349  1
4350  0
4351  1
4352  2
4353  2
4354  1
4355  0
4356  1
4357  0
4358  2
4359  0
4360  1
4361  0
4362  0
4363  0
4364  0
4365  2
4366  3
4367  0
4368  0
4369  0
4370  2
4371  0
4372  2
4373  1
4374  1
4375  1
4376  0
4377  1
4378  1
4379  2
4380  1
4381  2
4382  0
4383  0
4384  1
4385  0
4386  4
4387  0
4388  1
4389  1
4390  0
4391  2
4392  4
4393  1
4394  2
4395  2
4396  2
4397  1
4398  1
4399  0
4400  0
4401  2
4402  0
4403  1
4404  1
4405  0
4406  1
4407  3
4408  1
4409  2
4410  2
4411  2
4412  2
4413  3
4414  2
4415  1
4416  0
4417  2
4418  1
4419  0
4420  1
4421  0
4422  1
4423  3
4424  2
4425  1
4426  1
4427  0
4428  1
4429  4
4430  3
4431  2
4432  1
4433  1
4434  2
4435  1
4436  3
4437  4
4438  2
4439  5
4440  2
4441  2
4442  1
4443  1
4444  0
4445  4
4446  0
4447  1
4448  5
4449  1
4450  1
4451  1
4452  1
4453  0
4454  0
4455  1
4456  3
4457  2
4458  1
4459  0
4460  2
4461  1
4462  3
4463  2
4464  0
4465  0
4466  1
4467  1
4468  0
4469  1
4470  3
4471  2
4472  0
4473  0
4474  3
4475  2
4476  2
4477  0
4478  0
4479  0
4480  1
4481  1
4482  3
4483  0
4484  0
4485  0
4486  1
4487  1
4488  1
4489  0
4490  2
4491  0
4492  0
4493  3
4494  1
4495  2
4496  2
4497  1
4498  0
4499  0
4500  0
4501  0
4502  2
4503  0
4504  4
4505  1
4506  0
4507  0
4508  0
4509  0
4510  1
4511  1
4512  0
4513  1
4514  1
4515  2
4516  2
4517  1
4518  0
4519  0
4520  1
4521  1
4522  1
4523  1
4524  0
4525  0
4526  0
4527  1
4528  2
4529  1
4530  1
4531  0
4532  0
4533  1
4534  0
4535  0
4536  0
4537  0
4538  0
4539  1
4540  0
4541  1
4542  0
4543  0
4544  0
4545  1
4546  1
4547  1
4548  1
4549  1
4550  1
4551  3
4552  2
4553  0
4554  3
4555  1
4556  0
4557  1
4558  0
4559  1
4560  0
4561  1
4562  0
4563  0
4564  0
4565  3
4566  0
4567  0
4568  0
4569  0
4570  2
4571  1
4572  1
4573  1
4574  3
4575  0
4576  0
4577  3
4578  1
4579  1
4580  2
4581  0
4582  1
4583  2
4584  2
4585  4
4586  1
4587  1
4588  3
4589  0
4590  0
4591  1
4592  1
4593  1
4594  4
4595  2
4596  0
4597  2
4598  0
4599  2
4600  0
4601  1
4602  1
4603  1
4604  1
4605  0
4606  0
4607  0
4608  2
4609  2
4610  1
4611  0
4612  0
4613  0
4614  0
4615  1
4616  1
4617  1
4618  1
4619  1
4620  2
4621  1
4622  1
4623  1
4624  1
4625  1
4626  0
4627  2
4628  2
4629  0
4630  5
4631  0
4632  1
4633  1
4634  1
4635  3
4636  4
4637  2
4638  1
4639  3
4640  0
4641  2
4642  1
4643  4
4644  1
4645  2
4646  1
4647  0
4648  2
4649  1
4650  1
4651  1
4652  2
4653  1
4654  0
4655  1
4656  0
4657  2
4658  1
4659  1
4660  2
4661  1
4662  1
4663  1
4664  3
4665  2
4666  3
4667  0
4668  0
4669  0
4670  0
4671  0
4672  0
4673  3
4674  2
4675  2
4676  2
4677  2
4678  2
4679  3
4680  1
4681  1
4682  4
4683  2
4684  0
4685  1
4686  1
4687  0
4688  1
4689  0
4690  2
4691  1
4692  3
4693  0
4694  0
4695  3
4696  2
4697  0
4698  0
4699  0
4700  1
4701  0
4702  2
4703  0
4704  1
4705  3
4706  1
4707  1
4708  2
4709  1
4710  0
4711  3
4712  0
4713  1
4714  3
4715  0
4716  1
4717  0
4718  0
4719  2
4720  3
4721  0
4722  1
4723  1
4724  2
4725  0
4726  0
4727  3
4728  1
4729  4
4730  2
4731  2
4732  2
4733  3
4734  2
4735  2
4736  2
4737  2
4738  2
4739  1
4740  1
4741  2
4742  0
4743  2
4744  2
4745  1
4746  3
4747  1
4748  2
4749  2
4750  1
4751  2
4752  0
4753  4
4754  3
4755  3
4756  2
4757  3
4758  3
4759  5
4760  2
4761  6
4762  4
4763  3
4764  4
4765  5
4766  7
4767  7
4768  5
4769  8
4770  5
4771  7
4772  6
4773  5
4774  6
4775  7
4776  8
4777  11
4778  11
4779  8
4780  8
4781  7
4782  11
4783  7
4784  5
4785  9
4786  9
4787  3
4788  7
4789  6
4790  10
4791  7
4792  7
4793  8
4794  2
4795  6
4796  7
4797  1
4798  4
4799  5
4800  4
4801  9
4802  2
4803  4
4804  3
4805  1
4806  5
4807  2
4808  4
4809  2
4810  5
4811  2
4812  3
4813  5
4814  3
4815  2
4816  0
4817  1
4818  4
4819  1
4820  1
4821  0
4822  2
4823  0
4824  1
4825  4
4826  2
4827  3
4828  0
4829  3
4830  2
4831  1
4832  2
4833  0
4834  2
4835  1
4836  1
4837  1
4838  4
4839  3
4840  1
4841  3
4842  4
4843  0
4844  0
4845  2
4846  2
4847  2
4848  0
4849  1
4850  1
4851  1
4852  3
4853  1
4854  1
4855  1
4856  1
4857  4
4858  2
4859  2
4860  5
4861  3
4862  0
4863  1
4864  1
4865  4
4866  1
4867  1
4868  1
4869  5
4870  2
4871  2
4872  2
4873  1
4874  3
4875  1
4876  1
4877  2
4878  5
4879  0
4880  2
4881  0
4882  2
4883  3
4884  4
4885  2
4886  6
4887  0
4888  0
4889  0
4890  5
4891  2
4892  0
4893  4
4894  2
4895  4
4896  5
4897  4
4898  0
4899  5
4900  4
4901  5
4902  6
4903  2
4904  3
4905  2
4906  6
4907  4
4908  4
4909  10
4910  4
4911  4
4912  7
4913  10
4914  10
4915  6
4916  16
4917  16
4918  14
4919  11
4920  12
4921  11
4922  17
4923  17
4924  21
4925  23
4926  23
4927  27
4928  30
4929  32
4930  28
4931  33
4932  42
4933  42
4934  41
4935  55
4936  45
4937  47
4938  66
4939  70
4940  81
4941  76
4942  72
4943  82
4944  88
4945  102
4946  100
4947  83
4948  75
4949  90
4950  105
4951  100
4952  96
4953  112
4954  123
4955  120
4956  84
4957  101
4958  108
4959  105
4960  118
4961  96
4962  75
4963  93
4964  76
4965  96
4966  80
4967  88
4968  72
4969  72
4970  64
4971  63
4972  52
4973  48
4974  54
4975  33
4976  32
4977  32
4978  42
4979  23
4980  20
4981  15
4982  32
4983  21
4984  6
4985  13
4986  12
4987  9
4988  15
4989  10
4990  7
4991  8
4992  3
4993  8
4994  9
4995  1
4996  2
4997  2
4998  2
4999  1
5000  1
5001  1
5002  0
5003  0
5004  0
5005  0
5006  3
5007  1
5008  0
5009  0
5010  2
5011  1
5012  0
5013  0
5014  1
5015  0
5016  1
5017  1
5018  3
5019  0
5020  1
5021  0
5022  1
5023  3
5024  2
5025  3
5026  0
5027  0
5028  0
5029  0
5030  1
5031  2
5032  2
5033  0
5034  0
5035  0
5036  1
5037  0
5038  1
5039  1
5040  2
5041  1
5042  0
5043  0
5044  0
5045  1
5046  0
5047  1
5048  1
5049  0
5050  2
5051  4
5052  0
5053  1
5054  0
5055  0
5056  0
5057  1
5058  2
5059  1
5060  0
5061  1
5062  0
5063  0
5064  0
5065  1
5066  0
5067  0
5068  3
5069  0
5070  1
5071  0
5072  0
5073  0
5074  0
5075  1
5076  0
5077  2
5078  0
5079  0
5080  0
5081  0
5082  0
5083  0
5084  1
5085  0
5086  2
5087  0
5088  0
5089  1
5090  0
5091  0
5092  1
5093  1
5094  0
5095  1
5096  0
5097  0
5098  1
5099  0
5100  1
5101  3
5102  0
5103  1
5104  2
5105  1
5106  1
5107  1
5108  2
5109  1
5110  0
5111  1
5112  0
5113  1
5114  0
5115  1
5116  4
5117  2
5118  0
5119  0
5120  1
5121  1
5122  0
5123  1
5124  1
5125  1
5126  1
5127  2
5128  0
5129  2
5130  3
5131  0
5132  0
5133  2
5134  3
5135  1
5136  0
5137  1
5138  0
5139  0
5140  0
5141  0
5142  0
5143  2
5144  0
5145  1
5146  0
5147  2
5148  3
5149  0
5150  2
5151  1
5152  2
5153  0
5154  1
5155  0
5156  0
5157  1
5158  0
5159  0
5160  1
5161  0
5162  1
5163  1
5164  2
5165  0
5166  0
5167  0
5168  0
5169  1
5170  1
5171  1
5172  0
5173  0
5174  1
5175  0
5176  0
5177  1
5178  2
5179  1
5180  1
5181  1
5182  0
5183  0
5184  0
5185  2
5186  0
5187  3
5188  1
5189  0
5190  0
5191  0
5192  1
5193  1
5194  0
5195  0
5196  0
5197  2
5198  1
5199  1
5200  3
5201  2
5202  2
5203  1
5204  0
5205  1
5206  0
5207  1
5208  1
5209  0
5210  2
5211  4
5212  0
5213  2
5214  0
5215  0
5216  3
5217  1
5218  0
5219  1
5220  2
5221  1
5222  1
5223  2
5224  0
5225  0
5226  2
5227  1
5228  0
5229  1
5230  0
5231  0
5232  2
5233  1
5234  0
5235  0
5236  0
5237  1
5238  1
5239  0
5240  0
5241  1
5242  2
5243  0
5244  0
5245  1
5246  2
5247  1
5248  2
5249  2
5250  0
5251  1
5252  0
5253  2
5254  1
5255  0
5256  0
5257  0
5258  1
5259  0
5260  1
5261  3
5262  2
5263  0
5264  4
5265  2
5266  0
5267  0
5268  3
5269  0
5270  1
5271  1
5272  1
5273  1
5274  0
5275  2
5276  0
5277  0
5278  0
5279  0
5280  2
5281  2
5282  0
5283  0
5284  1
5285  0
5286  1
5287  0
5288  3
5289  3
5290  2
5291  1
5292  1
5293  1
5294  0
5295  1
5296  1
5297  1
5298  3
5299  2
5300  0
5301  3
5302  0
5303  0
5304  0
5305  1
5306  1
5307  1
5308  0
5309  1
5310  1
5311  2
5312  1
5313  0
5314  2
5315  0
5316  1
5317  2
5318  0
5319  0
5320  1
5321  1
5322  0
5323  0
5324  1
5325  1
5326  4
5327  0
5328  0
5329  0
5330  1
5331  0
5332  1
5333  1
5334  2
5335  2
5336  0
5337  1
5338  1
5339  1
5340  0
5341  4
5342  3
5343  2
5344  1
5345  0
5346  1
5347  2
5348  2
5349  2
5350  0
5351  1
5352  2
5353  1
5354  0
5355  0
5356  1
5357  0
5358  1
5359  0
5360  2
5361  0
5362  0
5363  0
5364  2
5365  4
5366  2
5367  0
5368  3
5369  1
5370  1
5371  0
5372  3
5373  2
5374  3
5375  3
5376  0
5377  3
5378  0
5379  0
5380  3
5381  1
5382  4
5383  2
5384  0
5385  0
5386  2
5387  2
5388  2
5389  6
5390  1
5391  1
5392  3
5393  2
5394  0
5395  2
5396  1
5397  1
5398  1
5399  6
5400  2
5401  3
5402  6
5403  5
5404  3
5405  4
5406  6
5407  7
5408  8
5409  10
5410  2
5411  6
5412  5
5413  10
5414  4
5415  7
5416  8
5417  4
5418  9
5419  11
5420  4
5421  8
5422  14
5423  10
5424  15
5425  17
5426  10
5427  14
5428  6
5429  23
5430  15
5431  14
5432  20
5433  25
5434  19
5435  20
5436  26
5437  20
5438  18
5439  22
5440  23
5441  20
5442  30
5443  29
5444  18
5445  18
5446  25
5447  35
5448  31
5449  27
5450  43
5451  21
5452  25
5453  26
5454  19
5455  21
5456  17
5457  18
5458  22
5459  9
5460  23
5461  26
5462  24
5463  17
5464  18
5465  13
5466  11
5467  14
5468  11
5469  15
5470  8
5471  10
5472  11
5473  9
5474  7
5475  8
5476  8
5477  2
5478  10
5479  5
5480  4
5481  2
5482  3
5483  2
5484  4
5485  1
5486  1
5487  1
5488  1
5489  2
5490  2
5491  0
5492  1
5493  1
5494  1
5495  1
5496  0
5497  1
5498  0
5499  2
5500  3
5501  2
5502  0
5503  2
5504  2
5505  0
5506  0
5507  2
5508  1
5509  1
5510  1
5511  0
5512  0
5513  0
5514  0
5515  1
5516  1
5517  1
5518  2
5519  0
5520  1
5521  0
5522  0
5523  2
5524  0
5525  1
5526  4
5527  2
5528  3
5529  1
5530  0
5531  2
5532  2
5533  0
5534  0
5535  0
5536  1
5537  1
5538  3
5539  1
5540  3
5541  2
5542  2
5543  1
5544  0
5545  2
5546  2
5547  1
5548  0
5549  0
5550  1
5551  0
5552  2
5553  3
5554  6
5555  2
5556  5
5557  3
5558  3
5559  4
5560  2
5561  6
5562  4
5563  5
5564  2
5565  3
5566  3
5567  5
5568  3
5569  4
5570  6
5571  2
5572  7
5573  6
5574  5
5575  5
5576  10
5577  8
5578  5
5579  6
5580  10
5581  4
5582  16
5583  8
5584  10
5585  13
5586  14
5587  12
5588  8
5589  19
5590  20
5591  18
5592  13
5593  22
5594  34
5595  30
5596  38
5597  33
5598  27
5599  48
5600  32
5601  43
5602  43
5603  52
5604  61
5605  49
5606  53
5607  62
5608  76
5609  64
5610  67
5611  86
5612  85
5613  86
5614  82
5615  89
5616  80
5617  91
5618  92
5619  107
5620  94
5621  111
5622  106
5623  98
5624  81
5625  79
5626  100
5627  64
5628  83
5629  96
5630  88
5631  79
5632  72
5633  93
5634  75
5635  64
5636  53
5637  59
5638  61
5639  51
5640  58
5641  46
5642  33
5643  39
5644  37
5645  35
5646  30
5647  25
5648  26
5649  21
5650  24
5651  14
5652  16
5653  18
5654  11
5655  9
5656  14
5657  8
5658  6
5659  4
5660  6
5661  3
5662  2
5663  6
5664  2
5665  2
5666  2
5667  0
5668  1
5669  3
5670  2
5671  1
5672  1
5673  2
5674  3
5675  2
5676  1
5677  0
5678  3
5679  0
5680  1
5681  0
5682  1
5683  1
5684  3
5685  1
5686  1
5687  0
5688  1
5689  2
5690  0
5691  0
5692  0
5693  0
5694  0
5695  0
5696  0
5697  0
5698  1
5699  0
5700  0
5701  1
5702  1
5703  0
5704  0
5705  0
5706  1
5707  2
5708  1
5709  0
5710  0
5711  1
5712  0
5713  0
5714  1
5715  1
5716  0
5717  0
5718  0
5719  0
5720  0
5721  0
5722  0
5723  1
5724  0
5725  0
5726  1
5727  0
5728  1
5729  0
5730  1
5731  0
5732  0
5733  0
5734  1
5735  1
5736  1
5737  0
5738  0
5739  0
5740  1
5741  1
5742  1
5743  0
5744  1
5745  1
5746  0
5747  0
5748  0
5749  0
5750  0
5751  1
5752  1
5753  0
5754  0
5755  1
5756  0
5757  1
5758  1
5759  1
5760  2
5761  1
5762  0
5763  1
5764  0
5765  1
5766  0
5767  0
5768  1
5769  1
5770  1
5771  0
5772  0
5773  1
5774  1
5775  2
5776  0
5777  0
5778  0
5779  2
5780  0
5781  0
5782  1
5783  0
5784  1
5785  1
5786  0
5787  1
5788  0
5789  2
5790  1
5791  1
5792  0
5793  0
5794  1
5795  1
5796  0
5797  0
5798  0
5799  1
5800  1
5801  3
5802  0
5803  1
5804  0
5805  0
5806  0
5807  0
5808  0
5809  1
5810  0
5811  1
5812  0
5813  1
5814  1
5815  0
5816  0
5817  1
5818  1
5819  0
5820  0
5821  1
5822  1
5823  1
5824  1
5825  0
5826  0
5827  1
5828  0
5829  1
5830  0
5831  0
5832  0
5833  0
5834  1
5835  1
5836  0
5837  0
5838  0
5839  1
5840  0
5841  1
5842  1
5843  0
5844  0
5845  0
5846  1
5847  0
5848  2
5849  0
5850  1
5851  0
5852  1
5853  1
5854  0
5855  0
5856  0
5857  0
5858  2
5859  0
5860  1
5861  1
5862  1
5863  1
5864  1
5865  1
5866  2
5867  0
5868  1
5869  0
5870  1
5871  2
5872  3
5873  0
5874  0
5875  0
5876  0
5877  0
5878  1
5879  1
5880  0
5881  2
5882  0
5883  2
5884  1
5885  2
5886  0
5887  0
5888  1
5889  0
5890  1
5891  0
5892  3
5893  1
5894  2
5895  2
5896  1
5897  1
5898  0
5899  1
5900  0
5901  2
5902  3
5903  2
5904  2
5905  2
5906  1
5907  0
5908  2
5909  3
5910  1
5911  1
5912  1
5913  1
5914  3
5915  0
5916  2
5917  0
5918  2
5919  4
5920  1
5921  0
5922  2
5923  1
5924  0
5925  1
5926  1
5927  1
5928  1
5929  2
5930  0
5931  1
5932  1
5933  0
5934  0
5935  1
5936  2
5937  0
5938  0
5939  0
5940  0
5941  1
5942  0
5943  3
5944  1
5945  1
5946  0
5947  2
5948  0
5949  0
5950  3
5951  1
5952  1
5953  0
5954  0
5955  1
5956  0
5957  1
5958  1
5959  1
5960  0
5961  1
5962  0
5963  1
5964  1
5965  1
5966  1
5967  1
5968  2
5969  2
5970  0
5971  0
5972  0
5973  1
5974  0
5975  1
5976  1
5977  2
5978  0
5979  1
5980  2
5981  1
5982  1
5983  0
5984  3
5985  0
5986  0
5987  0
5988  1
5989  1
5990  1
5991  0
5992  0
5993  1
5994  1
5995  2
5996  0
5997  0
5998  2
5999  0
6000  4
6001  2
6002  4
6003  3
6004  0
6005  2
6006  2
6007  1
6008  1
6009  1
6010  1
6011  0
6012  2
6013  2
6014  1
6015  1
6016  1
6017  0
6018  1
6019  0
6020  1
6021  1
6022  2
6023  0
6024  1
6025  1
6026  0
6027  4
6028  2
6029  1
6030  4
6031  1
6032  3
6033  4
6034  5
6035  1
6036  2
6037  2
6038  2
6039  1
6040  2
6041  3
6042  3
6043  2
6044  2
6045  3
6046  0
6047  6
6048  3
6049  4
6050  2
6051  7
6052  4
6053  8
6054  6
6055  5
6056  8
6057  6
6058  10
6059  10
6060  9
6061  7
6062  10
6063  9
6064  13
6065  9
6066  12
6067  7
6068  18
6069  15
6070  12
6071  11
6072  14
6073  24
6074  12
6075  29
6076  21
6077  27
6078  26
6079  26
6080  25
6081  28
6082  35
6083  40
6084  37
6085  50
6086  62
6087  49
6088  57
6089  55
6090  65
6091  62
6092  83
6093  86
6094  62
6095  83
6096  79
6097  91
6098  100
6099  83
6100  82
6101  102
6102  96
6103  99
6104  91
6105  103
6106  88
6107  101
6108  92
6109  100
6110  88
6111  104
6112  107
6113  108
6114  80
6115  84
6116  68
6117  73
6118  81
6119  91
6120  64
6121  66
6122  61
6123  46
6124  63
6125  62
6126  35
6127  45
6128  39
6129  39
6130  31
6131  34
6132  31
6133  27
6134  29
6135  13
6136  14
6137  18
6138  12
6139  11
6140  15
6141  7
6142  7
6143  4
6144  2
6145  5
6146  5
6147  3
6148  4
6149  3
6150  4
6151  5
6152  3
6153  1
6154  1
6155  1
6156  0
6157  2
6158  1
6159  1
6160  1
6161  1
6162  0
6163  1
6164  0
6165  1
6166  0
6167  0
6168  0
6169  1
6170  0
6171  0
6172  0
6173  0
6174  0
6175  0
6176  0
6177  0
6178  1
6179  0
6180  0
6181  0
6182  0
6183  0
6184  0
6185  0
6186  0
6187  1
6188  0
6189  0
6190  0
6191  0
6192  0
6193  0
6194  0
6195  0
6196  0
6197  0
6198  0
6199  0
6200  0
6201  0
6202  0
6203  0
6204  1
6205  0
6206  0
6207  0
6208  0
6209  0
6210  0
6211  0
6212  0
6213  0
6214  0
6215  0
6216  0
6217  2
6218  0
6219  0
6220  0
6221  0
6222  0
6223  0
6224  0
6225  1
6226  0
6227  0
6228  0
6229  0
6230  0
6231  0
6232  0
6233  0
6234  0
6235  0
6236  0
6237  0
6238  0
6239  0
6240  0
6241  0
6242  0
6243  0
6244  0
6245  0
6246  0
6247  0
6248  0
6249  0
6250  0
6251  0
6252  0
6253  0
6254  0
6255  0
6256  0
6257  0
6258  1
6259  0
6260  0
6261  1
6262  0
6263  0
6264  0
6265  0
6266  0
6267  0
6268  0
6269  0
6270  0
6271  0
6272  0
6273  0
6274  0
6275  0
6276  0
6277  0
6278  0
6279  0
6280  0
6281  1
6282  0
6283  0
6284  0
6285  0
6286  0
6287  0
6288  0
6289  0
6290  0
6291  0
6292  0
6293  0
6294  0
6295  0
6296  0
6297  0
6298  0
6299  0
6300  0
6301  0
6302  0
6303  1
6304  0
6305  0
6306  0
6307  0
6308  0
6309  0
6310  0
6311  0
6312  0
6313  0
6314  0
6315  0
6316  0
6317  0
6318  0
6319  0
6320  0
6321  0
6322  1
6323  0
6324  0
6325  0
6326  0
6327  0
6328  0
6329  2
6330  0
6331  0
6332  0
6333  0
6334  0
6335  0
6336  0
6337  0
6338  0
6339  0
6340  0
6341  0
6342  1
6343  0
6344  1
6345  0
6346  0
6347  0
6348  1
6349  0
6350  0
6351  0
6352  0
6353  1
6354  0
6355  0
6356  0
6357  0
6358  0
6359  0
6360  0
6361  0
6362  0
6363  0
6364  0
6365  0
6366  0
6367  0
6368  0
6369  2
6370  0
6371  0
6372  0
6373  0
6374  0
6375  0
6376  0
6377  0
6378  0
6379  1
6380  0
6381  1
6382  0
6383  0
6384  1
6385  0
6386  0
6387  0
6388  0
6389  0
6390  0
6391  0
6392  0
6393  0
6394  0
6395  0
6396  0
6397  0
6398  0
6399  0
6400  1
6401  1
6402  1
6403  0
6404  0
6405  0
6406  0
6407  0
6408  0
6409  0
6410  0
6411  1
6412  0
6413  1
6414  1
6415  0
6416  1
6417  0
6418  0
6419  0
6420  1
6421  1
6422  1
6423  0
6424  1
6425  0
6426  0
6427  0
6428  0
6429  0
6430  0
6431  1
6432  0
6433  0
6434  0
6435  0
6436  1
6437  0
6438  0
6439  1
6440  3
6441  0
6442  0
6443  2
6444  0
6445  0
6446  0
6447  0
6448  0
6449  0
6450  0
6451  0
6452  0
6453  0
6454  0
6455  0
6456  0
6457  0
6458  0
6459  0
6460  0
6461  0
6462  0
6463  0
6464  1
6465  0
6466  0
6467  0
6468  0
6469  0
6470  1
6471  0
6472  0
6473  0
6474  0
6475  0
6476  0
6477  0
6478  1
6479  0
6480  0
6481  0
6482  0
6483  0
6484  0
6485  0
6486  0
6487  0
6488  0
6489  0
6490  0
6491  0
6492  1
6493  0
6494  0
6495  0
6496  0
6497  0
6498  0
6499  2
6500  0
6501  0
6502  0
6503  0
6504  0
6505  0
6506  0
6507  0
6508  0
6509  1
6510  0
6511  0
6512  0
6513  0
6514  0
6515  0
6516  0
6517  0
6518  0
6519  0
6520  0
6521  1
6522  0
6523  0
6524  0
6525  1
6526  0
6527  0
6528  0
6529  0
6530  0
6531  0
6532  0
6533  0
6534  1
6535  0
6536  0
6537  0
6538  0
6539  0
6540  0
6541  0
6542  0
6543  0
6544  0
6545  0
6546  0
6547  0
6548  0
6549  0
6550  0
6551  0
6552  1
6553  0
6554  0
6555  0
6556  1
6557  1
6558  0
6559  0
6560  0
6561  0
6562  0
6563  0
6564  0
6565  0
6566  0
6567  0
6568  0
6569  0
6570  0
6571  0
6572  0
6573  0
6574  1
6575  0
6576  0
6577  0
6578  1
6579  0
6580  1
6581  0
6582  0
6583  0
6584  0
6585  0
6586  0
6587  0
6588  1
6589  0
6590  0
6591  0
6592  0
6593  0
6594  0
6595  0
6596  0
6597  0
6598  0
6599  0
6600  0
6601  0
6602  0
6603  0
6604  0
6605  0
6606  0
6607  0
6608  1
6609  1
6610  0
6611  0
6612  0
6613  1
6614  0
6615  1
6616  0
6617  0
6618  0
6619  0
6620  0
6621  0
6622  0
6623  0
6624  1
6625  0
6626  0
6627  0
6628  0
6629  0
6630  1
6631  0
6632  0
6633  0
6634  0
6635  0
6636  0
6637  1
6638  2
6639  0
6640  1
6641  0
6642  0
6643  0
6644  0
6645  0
6646  0
6647  1
6648  1
6649  1
6650  1
6651  0
6652  1
6653  0
6654  0
6655  0
6656  2
6657  0
6658  0
6659  0
6660  0
6661  0
6662  0
6663  0
6664  0
6665  1
6666  0
6667  0
6668  0
6669  0
6670  0
6671  1
6672  1
6673  0
6674  0
6675  1
6676  0
6677  0
6678  0
6679  1
6680  0
6681  1
6682  1
6683  0
6684  0
6685  0
6686  0
6687  0
6688  0
6689  1
6690  0
6691  0
6692  0
6693  0
6694  0
6695  1
6696  1
6697  0
6698  0
6699  1
6700  0
6701  2
6702  0
6703  0
6704  0
6705  0
6706  0
6707  0
6708  0
6709  0
6710  1
6711  1
6712  1
6713  0
6714  0
6715  0
6716  0
6717  0
6718  0
6719  1
6720  0
6721  0
6722  0
6723  0
6724  0
6725  0
6726  0
6727  0
6728  0
6729  0
6730  0
6731  0
6732  0
6733  0
6734  0
6735  0
6736  0
6737  0
6738  0
6739  2
6740  0
6741  0
6742  0
6743  0
6744  0
6745  0
6746  0
6747  0
6748  0
6749  0
6750  0
6751  0
6752  0
6753  0
6754  0
6755  0
6756  0
6757  1
6758  0
6759  0
6760  0
6761  0
6762  1
6763  1
6764  0
6765  0
6766  1
6767  0
6768  0
6769  1
6770  0
6771  1
6772  1
6773  0
6774  1
6775  0
6776  0
6777  0
6778  0
6779  0
6780  0
6781  0
6782  1
6783  0
6784  0
6785  0
6786  0
6787  0
6788  0
6789  0
6790  0
6791  3
6792  1
6793  0
6794  0
6795  1
6796  1
6797  0
6798  0
6799  1
6800  0
6801  0
6802  0
6803  0
6804  0
6805  0
6806  0
6807  0
6808  0
6809  0
6810  0
6811  0
6812  0
6813  0
6814  0
6815  0
6816  0
6817  0
6818  1
6819  0
6820  0
6821  0
6822  0
6823  0
6824  0
6825  0
6826  0
6827  0
6828  0
6829  0
6830  0
6831  0
6832  0
6833  0
6834  0
6835  0
6836  0
6837  0
6838  0
6839  0
6840  0
6841  0
6842  0
6843  0
6844  0
6845  0
6846  0
6847  0
6848  0
6849  0
6850  1
6851  0
6852  0
6853  0
6854  0
6855  0
6856  0
6857  0
6858  0
6859  0
6860  0
6861  0
6862  0
6863  0
6864  0
6865  1
6866  1
6867  0
6868  0
6869  1
6870  1
6871  0
6872  0
6873  0
6874  0
6875  1
6876  1
6877  1
6878  0
6879  1
6880  0
6881  0
6882  0
6883  2
6884  0
6885  0
6886  0
6887  0
6888  0
6889  0
6890  0
6891  0
6892  1
6893  0
6894  0
6895  1
6896  0
6897  0
6898  0
6899  0
6900  0
6901  0
6902  0
6903  0
6904  0
6905  0
6906  0
6907  0
6908  0
6909  0
6910  0
6911  0
6912  0
6913  0
6914  0
6915  0
6916  0
6917  0
6918  0
6919  1
6920  0
6921  0
6922  0
6923  0
6924  0
6925  0
6926  0
6927  0
6928  0
6929  0
6930  0
6931  0
6932  0
6933  0
6934  0
6935  0
6936  0
6937  0
6938  0
6939  0
6940  0
6941  0
6942  0
6943  2
6944  1
6945  0
6946  0
6947  0
6948  0
6949  0
6950  0
6951  0
6952  1
6953  1
6954  0
6955  0
6956  0
6957  1
6958  0
6959  0
6960  0
6961  0
6962  0
6963  0
6964  0
6965  0
6966  0
6967  0
6968  0
6969  1
6970  0
6971  0
6972  0
6973  0
6974  0
6975  0
6976  0
6977  1
6978  0
6979  0
6980  0
6981  0
6982  0
6983  0
6984  0
6985  1
6986  0
6987  0
6988  0
6989  1
6990  1
6991  0
6992  0
6993  0
6994  0
6995  0
6996  0
6997  0
6998  0
6999  0
7000  0
7001  0
7002  1
7003  0
7004  1
7005  2
7006  0
7007  0
7008  0
7009  0
7010  0
7011  0
7012  0
7013  0
7014  1
7015  0
7016  0
7017  0
7018  1
7019  0
7020  0
7021  1
7022  0
7023  0
7024  0
7025  0
7026  0
7027  0
7028  0
7029  0
7030  0
7031  0
7032  0
7033  1
7034  0
7035  0
7036  0
7037  0
7038  0
7039  1
7040  0
7041  0
7042  1
7043  1
7044  0
7045  1
7046  0
7047  0
7048  0
7049  0
7050  0
7051  0
7052  0
7053  1
7054  0
7055  0
7056  0
7057  0
7058  1
7059  1
7060  0
7061  1
7062  0
7063  0
7064  1
7065  0
7066  1
7067  0
7068  0
7069  0
7070  1
7071  0
7072  1
7073  0
7074  0
7075  0
7076  0
7077  0
7078  0
7079  0
7080  0
7081  0
7082  0
7083  0
7084  0
7085  0
7086  0
7087  0
7088  0
7089  0
7090  0
7091  0
7092  0
7093  1
7094  1
7095  0
7096  0
7097  0
7098  0
7099  0
7100  1
7101  0
7102  0
7103  0
7104  0
7105  2
7106  0
7107  0
7108  0
7109  0
7110  0
7111  0
7112  1
7113  0
7114  0
7115  1
7116  1
7117  1
7118  0
7119  0
7120  0
7121  0
7122  0
7123  0
7124  0
7125  0
7126  0
7127  0
7128  0
7129  0
7130  0
7131  0
7132  0
7133  0
7134  0
7135  0
7136  0
7137  0
7138  0
7139  0
7140  0
7141  0
7142  0
7143  0
7144  0
7145  0
7146  0
7147  1
7148  0
7149  0
7150  0
7151  0
7152  0
7153  0
7154  1
7155  0
7156  0
7157  0
7158  0
7159  0
7160  1
7161  1
7162  0
7163  0
7164  0
7165  0
7166  2
7167  0
7168  0
7169  1
7170  0
7171  0
7172  0
7173  0
7174  0
7175  1
7176  1
7177  0
7178  0
7179  0
7180  0
7181  0
7182  0
7183  0
7184  0
7185  0
7186  0
7187  1
7188  1
7189  0
7190  0
7191  0
7192  0
7193  0
7194  0
7195  0
7196  1
7197  0
7198  1
7199  0
7200  0
7201  1
7202  0
7203  0
7204  2
7205  0
7206  1
7207  1
7208  0
7209  0
7210  1
7211  0
7212  0
7213  2
7214  1
7215  0
7216  2
7217  0
7218  0
7219  1
7220  0
7221  0
7222  0
7223  1
7224  0
7225  1
7226  0
7227  0
7228  2
7229  1
7230  1
7231  0
7232  0
7233  0
7234  0
7235  1
7236  1
7237  0
7238  0
7239  0
7240  1
7241  3
7242  0
7243  1
7244  0
7245  0
7246  1
7247  0
7248  0
7249  1
7250  0
7251  1
7252  0
7253  0
7254  0
7255  1
7256  0
7257  0
7258  0
7259  0
7260  0
7261  0
7262  1
7263  2
7264  1
7265  0
7266  0
7267  1
7268  1
7269  0
7270  2
7271  0
7272  0
7273  0
7274  0
7275  0
7276  0
7277  1
7278  0
7279  2
7280  0
7281  0
7282  0
7283  0
7284  0
7285  1
7286  0
7287  0
7288  1
7289  0
7290  0
7291  0
7292  0
7293  0
7294  0
7295  0
7296  0
7297  0
7298  0
7299  0
7300  0
7301  0
7302  0
7303  0
7304  1
7305  0
7306  0
7307  0
7308  1
7309  2
7310  0
7311  0
7312  1
7313  0
7314  0
7315  0
7316  0
7317  0
7318  0
7319  0
7320  0
7321  0
7322  0
7323  0
7324  1
7325  0
7326  0
7327  0
7328  0
7329  0
7330  0
7331  3
7332  1
7333  1
7334  0
7335  2
7336  0
7337  0
7338  0
7339  0
7340  0
7341  1
7342  0
7343  0
7344  0
7345  0
7346  0
7347  0
7348  0
7349  1
7350  0
7351  0
7352  2
7353  0
7354  0
7355  1
7356  1
7357  0
7358  0
7359  0
7360  1
7361  0
7362  0
7363  1
7364  0
7365  2
7366  1
7367  0
7368  1
7369  0
7370  0
7371  2
7372  0
7373  0
7374  1
7375  2
7376  0
7377  0
7378  0
7379  0
7380  1
7381  0
7382  0
7383  0
7384  1
7385  0
7386  1
7387  1
7388  1
7389  0
7390  0
7391  0
7392  2
7393  0
7394  0
7395  0
7396  1
7397  1
7398  0
7399  0
7400  1
7401  0
7402  0
7403  0
7404  0
7405  1
7406  0
7407  4
7408  0
7409  0
7410  1
7411  0
7412  0
7413  1
7414  0
7415  1
7416  0
7417  0
7418  1
7419  1
7420  0
7421  1
7422  0
7423  0
7424  0
7425  0
7426  1
7427  1
7428  0
7429  1
7430  0
7431  0
7432  0
7433  0
7434  3
7435  0
7436  3
7437  3
7438  0
7439  1
7440  1
7441  0
7442  1
7443  0
7444  1
7445  0
7446  0
7447  1
7448  3
7449  0
7450  0
7451  0
7452  0
7453  0
7454  0
7455  0
7456  0
7457  1
7458  0
7459  0
7460  0
7461  0
7462  0
7463  1
7464  0
7465  0
7466  0
7467  0
7468  0
7469  0
7470  1
7471  1
7472  0
7473  1
7474  0
7475  0
7476  0
7477  1
7478  0
7479  0
7480  0
7481  1
7482  0
7483  1
7484  1
7485  0
7486  0
7487  1
7488  0
7489  2
7490  0
7491  1
7492  0
7493  0
7494  0
7495  0
7496  0
7497  0
7498  1
7499  0
7500  0
7501  0
7502  1
7503  0
7504  1
7505  0
7506  0
7507  1
7508  1
7509  0
7510  1
7511  1
7512  1
7513  0
7514  0
7515  2
7516  1
7517  0
7518  1
7519  1
7520  0
7521  0
7522  0
7523  1
7524  2
7525  2
7526  0
7527  0
7528  0
7529  2
7530  0
7531  0
7532  0
7533  0
7534  2
7535  0
7536  1
7537  1
7538  0
7539  2
7540  2
7541  1
7542  2
7543  0
7544  0
7545  0
7546  1
7547  0
7548  0
7549  0
7550  2
7551  1
7552  1
7553  0
7554  0
7555  0
7556  1
7557  1
7558  4
7559  0
7560  1
7561  0
7562  0
7563  0
7564  1
7565  0
7566  0
7567  0
7568  1
7569  0
7570  2
7571  1
7572  0
7573  2
7574  0
7575  1
7576  0
7577  1
7578  0
7579  0
7580  1
7581  0
7582  0
7583  1
7584  0
7585  1
7586  1
7587  2
7588  1
7589  1
7590  0
7591  4
7592  4
7593  1
7594  0
7595  0
7596  0
7597  0
7598  1
7599  1
7600  2
7601  2
7602  1
7603  0
7604  0
7605  0
7606  1
7607  0
7608  1
7609  0
7610  1
7611  1
7612  3
7613  0
7614  3
7615  1
7616  0
7617  2
7618  1
7619  1
7620  0
7621  3
7622  1
7623  2
7624  3
7625  3
7626  3
7627  2
7628  2
7629  2
7630  0
7631  1
7632  4
7633  2
7634  5
7635  4
7636  3
7637  3
7638  4
7639  5
7640  6
7641  5
7642  2
7643  4
7644  2
7645  6
7646  3
7647  5
7648  4
7649  3
7650  7
7651  6
7652  10
7653  7
7654  13
7655  13
7656  12
7657  11
7658  7
7659  10
7660  15
7661  23
7662  14
7663  8
7664  21
7665  13
7666  19
7667  26
7668  27
7669  23
7670  32
7671  38
7672  26
7673  45
7674  33
7675  48
7676  49
7677  47
7678  48
7679  51
7680  46
7681  56
7682  59
7683  73
7684  51
7685  71
7686  59
7687  71
7688  91
7689  78
7690  98
7691  75
7692  89
7693  96
7694  94
7695  84
7696  87
7697  77
7698  87
7699  92
7700  68
7701  90
7702  81
7703  86
7704  83
7705  65
7706  66
7707  65
7708  73
7709  61
7710  73
7711  42
7712  68
7713  63
7714  54
7715  38
7716  53
7717  42
7718  47
7719  32
7720  34
7721  38
7722  28
7723  31
7724  24
7725  24
7726  20
7727  22
7728  14
7729  16
7730  19
7731  12
7732  11
7733  8
7734  4
7735  4
7736  4
7737  5
7738  4
7739  1
7740  3
7741  3
7742  3
7743  2
7744  1
7745  1
7746  1
7747  1
7748  1
7749  1
7750  2
7751  1
7752  2
7753  0
7754  0
7755  0
7756  1
7757  0
7758  0
7759  0
7760  0
7761  0
7762  0
7763  0
7764  0
7765  0
7766  0
7767  0
7768  0
7769  0
7770  0
7771  0
7772  0
7773  0
7774  0
7775  1
7776  0
7777  0
7778  0
7779  0
7780  0
7781  0
7782  0
7783  0
7784  0
7785  0
7786  0
7787  0
7788  0
7789  0
7790  0
7791  0
7792  0
7793  0
7794  0
7795  0
7796  0
7797  0
7798  0
7799  0
7800  0
7801  0
7802  0
7803  0
7804  0
7805  0
7806  0
7807  0
7808  0
7809  0
7810  0
7811  0
7812  0
7813  0
7814  0
7815  0
7816  0
7817  0
7818  0
7819  0
7820  0
7821  0
7822  0
7823  0
7824  0
7825  0
7826  0
7827  0
7828  0
7829  0
7830  0
7831  0
7832  0
7833  0
7834  0
7835  0
7836  0
7837  0
7838  0
7839  0
7840  0
7841  0
7842  0
7843  0
7844  0
7845  0
7846  0
7847  0
7848  0
7849  0
7850  0
7851  0
7852  0
7853  0
7854  0
7855  0
7856  0
7857  0
7858  0
7859  0
7860  0
7861  0
7862  0
7863  0
7864  0
7865  0
7866  0
7867  0
7868  0
7869  0
7870  0
7871  0
7872  0
7873  0
7874  0
7875  0
7876  0
7877  0
7878  0
7879  0
7880  0
7881  0
7882  0
7883  0
7884  0
7885  0
7886  0
7887  0
7888  0
7889  0
7890  0
7891  0
7892  0
7893  0
7894  0
7895  0
7896  0
7897  0
7898  0
7899  0
7900  0
7901  0
7902  0
7903  0
7904  0
7905  0
7906  0
7907  0
7908  0
7909  0
7910  0
7911  0
7912  0
7913  0
7914  0
7915  0
7916  0
7917  0
7918  0
7919  0
7920  0
7921  0
7922  0
7923  0
7924  0
7925  0
7926  0
7927  0
7928  0
7929  0
7930  0
7931  0
7932  0
7933  0
7934  0
7935  0
7936  0
7937  0
7938  0
7939  0
7940  0
7941  0
7942  0
7943  0
7944  0
7945  0
7946  0
7947  0
7948  0
7949  0
7950  0
7951  0
7952  0
7953  0
7954  0
7955  0
7956  0
7957  0
7958  0
7959  0
7960  0
7961  0
7962  0
7963  0
7964  0
7965  0
7966  0
7967  0
7968  0
7969  0
7970  0
7971  0
7972  0
7973  0
7974  0
7975  0
7976  0
7977  0
7978  0
7979  0
7980  0
7981  0
7982  0
7983  0
7984  0
7985  0
7986  0
7987  0
7988  0
7989  0
7990  0
7991  0
7992  0
7993  0
7994  0
7995  0
7996  0
7997  0
7998  0
7999  0
8000  0
8001  0
8002  0
8003  0
8004  0
8005  0
8006  0
8007  0
8008  0
8009  0
8010  0
8011  0
8012  0
8013  0
8014  0
8015  0
8016  0
8017  0
8018  0
8019  0
8020  0
8021  0
8022  0
8023  0
8024  0
8025  0
8026  0
8027  0
8028  0
8029  0
8030  0
8031  0
8032  0
8033  0
8034  0
8035  0
8036  0
8037  0
8038  0
8039  0
8040  0
8041  0
8042  0
8043  0
8044  0
8045  0
8046  0
8047  0
8048  0
8049  0
8050  0
8051  0
8052  0
8053  0
8054  0
8055  0
8056  0
8057  0
8058  0
8059  0
8060  0
8061  0
8062  0
8063  0
8064  0
8065  0
8066  0
8067  0
8068  0
8069  0
8070  0
8071  0
8072  0
8073  0
8074  0
8075  0
8076  0
8077  0
8078  0
8079  0
8080  0
8081  1
8082  0
8083  0
8084  0
8085  0
8086  0
8087  0
8088  0
8089  0
8090  0
8091  0
8092  0
8093  0
8094  0
8095  0
8096  0
8097  0
8098  0
8099  0
8100  0
8101  0
8102  0
8103  0
8104  0
8105  0
8106  0
8107  0
8108  0
8109  0
8110  0
8111  0
8112  0
8113  0
8114  0
8115  0
8116  0
8117  0
8118  0
8119  0
8120  0
8121  0
8122  0
8123  0
8124  0
8125  0
8126  0
8127  0
8128  0
8129  0
8130  0
8131  0
8132  0
8133  0
8134  0
8135  0
8136  0
8137  0
8138  0
8139  0
8140  0
8141  0
8142  0
8143  0
8144  0
8145  0
8146  0
8147  0
8148  0
8149  0
8150  0
8151  0
8152  0
8153  0
8154  0
8155  0
8156  0
8157  0
8158  0
8159  0
8160  0
8161  0
8162  0
8163  0
8164  0
8165  0
8166  0
8167  0
8168  0
8169  0
8170  0
8171  0
8172  0
8173  0
8174  0
8175  0
8176  0
8177  0
8178  0
8179  0
8180  0
8181  0
8182  0
8183  0
8184  0
8185  0
8186  0
8187  0
8188  0
8189  0
8190  0
8191  0
