0  891
1  0
2  0
3  0
4  0
5  0
6  0
7  0
8  0
9  0
10  0
11  0
12  0
13  0
14  0
15  0
16  0
17  0
18  0
19  0
20  0
21  0
22  0
23  0
24  0
25  0
26  0
27  0
28  0
29  0
30  0
31  0
32  0
33  0
34  0
35  0
36  0
37  0
38  0
39  0
40  0
41  0
42  0
43  0
44  0
45  0
46  0
47  0
48  0
49  0
50  0
51  0
52  0
53  0
54  0
55  0
56  0
57  0
58  0
59  0
60  0
61  0
62  0
63  0
64  0
65  0
66  0
67  0
68  0
69  0
70  0
71  0
72  0
73  0
74  0
75  0
76  0
77  0
78  0
79  0
80  0
81  0
82  0
83  0
84  0
85  0
86  0
87  0
88  0
89  0
90  0
91  0
92  0
93  0
94  0
95  0
96  0
97  0
98  0
99  0
100  0
101  0
102  0
103  0
104  0
105  0
106  0
107  0
108  0
109  0
110  0
111  0
112  0
113  0
114  0
115  0
116  0
117  0
118  0
119  0
120  0
121  0
122  0
123  0
124  0
125  0
126  0
127  0
128  0
129  0
130  0
131  0
132  0
133  0
134  0
135  0
136  0
137  0
138  0
139  0
140  0
141  0
142  0
143  0
144  0
145  0
146  0
147  0
148  0
149  0
150  0
151  0
152  0
153  0
154  0
155  0
156  0
157  0
158  1
159  0
160  0
161  0
162  0
163  0
164  0
165  0
166  0
167  0
168  0
169  0
170  0
171  0
172  0
173  0
174  0
175  0
176  0
177  0
178  0
179  0
180  0
181  0
182  0
183  0
184  0
185  0
186  0
187  0
188  0
189  0
190  0
191  0
192  0
193  0
194  0
195  0
196  0
197  0
198  0
199  0
200  0
201  0
202  0
203  0
204  0
205  0
206  0
207  0
208  0
209  0
210  0
211  0
212  0
213  0
214  0
215  0
216  0
217  0
218  0
219  0
220  0
221  0
222  0
223  0
224  0
225  0
226  0
227  0
228  0
229  0
230  0
231  0
232  0
233  0
234  0
235  0
236  0
237  0
238  0
239  0
240  0
241  0
242  0
243  0
244  0
245  0
246  0
247  0
248  0
249  0
250  0
251  0
252  0
253  0
254  0
255  0
256  0
257  0
258  0
259  0
260  0
261  0
262  0
263  0
264  0
265  0
266  0
267  0
268  0
269  0
270  0
271  0
272  0
273  0
274  0
275  0
276  0
277  0
278  0
279  0
280  0
281  0
282  0
283  0
284  0
285  0
286  0
287  0
288  0
289  0
290  0
291  0
292  0
293  0
294  0
295  0
296  0
297  0
298  0
299  0
300  0
301  0
302  0
303  0
304  0
305  0
306  0
307  0
308  0
309  0
310  0
311  0
312  0
313  0
314  0
315  0
316  0
317  0
318  0
319  0
320  0
321  0
322  0
323  0
324  0
325  0
326  0
327  0
328  0
329  0
330  0
331  0
332  0
333  0
334  0
335  0
336  0
337  0
338  0
339  0
340  0
341  0
342  0
343  0
344  0
345  0
346  0
347  0
348  0
349  0
350  0
351  0
352  0
353  0
354  0
355  0
356  0
357  0
358  0
359  0
360  0
361  0
362  0
363  0
364  0
365  0
366  0
367  0
368  0
369  0
370  0
371  0
372  0
373  0
374  0
375  0
376  0
377  0
378  0
379  0
380  0
381  0
382  0
383  0
384  0
385  0
386  0
387  0
388  0
389  0
390  0
391  0
392  0
393  0
394  0
395  0
396  0
397  0
398  0
399  0
400  0
401  0
402  0
403  0
404  0
405  0
406  0
407  0
408  0
409  0
410  0
411  0
412  0
413  0
414  0
415  0
416  0
417  0
418  0
419  0
420  0
421  0
422  0
423  0
424  0
425  0
426  0
427  0
428  0
429  0
430  0
431  0
432  0
433  0
434  0
435  0
436  0
437  0
438  0
439  0
440  0
441  0
442  0
443  0
444  0
445  0
446  0
447  0
448  0
449  0
450  0
451  0
452  0
453  0
454  0
455  0
456  0
457  0
458  0
459  0
460  0
461  0
462  0
463  0
464  0
465  0
466  0
467  0
468  0
469  0
470  0
471  0
472  0
473  0
474  0
475  0
476  0
477  0
478  0
479  0
480  0
481  0
482  0
483  0
484  0
485  0
486  0
487  0
488  0
489  0
490  0
491  0
492  0
493  0
494  0
495  0
496  0
497  0
498  0
499  0
500  0
501  0
502  0
503  0
504  0
505  0
506  0
507  0
508  0
509  0
510  0
511  0
512  0
513  0
514  0
515  0
516  0
517  0
518  0
519  0
520  0
521  0
522  0
523  0
524  0
525  0
526  0
527  0
528  0
529  0
530  0
531  0
532  0
533  0
534  0
535  0
536  0
537  0
538  0
539  0
540  0
541  0
542  0
543  0
544  0
545  0
546  0
547  0
548  0
549  0
550  0
551  0
552  0
553  0
554  0
555  0
556  1
557  0
558  3
559  8
560  11
561  13
562  11
563  17
564  29
565  39
566  63
567  88
568  171
569  355
570  586
571  968
572  1324
573  2420
574  3025
575  2986
576  2906
577  2876
578  2707
579  2734
580  2737
581  2577
582  2592
583  2430
584  2348
585  2439
586  2359
587  2361
588  2325
589  2317
590  2236
591  2150
592  2177
593  2241
594  2173
595  2140
596  2012
597  1968
598  1986
599  1916
600  1940
601  1910
602  1869
603  1910
604  1919
605  1842
606  1802
607  1701
608  1856
609  1762
610  1688
611  1675
612  1653
613  1706
614  1705
615  1594
616  1619
617  1579
618  1653
619  1579
620  1562
621  1631
622  1561
623  1536
624  1557
625  1542
626  1531
627  1506
628  1443
629  1448
630  1448
631  1415
632  1473
633  1439
634  1430
635  1417
636  1413
637  1325
638  1360
639  1229
640  1371
641  1313
642  1263
643  1317
644  1279
645  1271
646  1199
647  1262
648  1242
649  1167
650  1148
651  1242
652  1204
653  1139
654  1124
655  1114
656  1094
657  1148
658  1136
659  1121
660  1131
661  1156
662  1132
663  1116
664  1099
665  1075
666  1095
667  1090
668  1098
669  1089
670  1106
671  1111
672  1043
673  1062
674  1041
675  1102
676  1076
677  1039
678  1077
679  1067
680  1056
681  1032
682  1034
683  1037
684  1023
685  1085
686  1014
687  1045
688  981
689  1025
690  1032
691  963
692  1012
693  1031
694  956
695  993
696  1006
697  1030
698  961
699  973
700  947
701  945
702  939
703  894
704  912
705  954
706  918
707  943
708  949
709  940
710  947
711  951
712  904
713  898
714  890
715  904
716  892
717  830
718  881
719  889
720  885
721  913
722  895
723  868
724  923
725  883
726  915
727  908
728  855
729  861
730  881
731  839
732  850
733  867
734  831
735  818
736  875
737  862
738  805
739  849
740  833
741  824
742  792
743  810
744  805
745  847
746  812
747  842
748  784
749  758
750  804
751  790
752  791
753  755
754  814
755  736
756  770
757  734
758  752
759  756
760  755
761  739
762  783
763  740
764  747
765  812
766  772
767  737
768  701
769  739
770  734
771  781
772  757
773  777
774  758
775  742
776  693
777  737
778  711
779  698
780  710
781  714
782  675
783  654
784  682
785  722
786  735
787  747
788  647
789  679
790  705
791  690
792  648
793  668
794  731
795  669
796  653
797  699
798  678
799  661
800  629
801  619
802  684
803  611
804  648
805  615
806  604
807  649
808  656
809  612
810  618
811  657
812  568
813  607
814  604
815  610
816  610
817  629
818  598
819  596
820  592
821  622
822  577
823  560
824  633
825  558
826  599
827  584
828  585
829  551
830  571
831  590
832  565
833  577
834  525
835  546
836  596
837  534
838  570
839  551
840  566
841  553
842  542
843  524
844  553
845  576
846  512
847  581
848  535
849  539
850  528
851  514
852  509
853  492
854  562
855  537
856  535
857  482
858  501
859  556
860  526
861  495
862  530
863  471
864  474
865  468
866  517
867  520
868  520
869  456
870  543
871  493
872  487
873  501
874  490
875  462
876  497
877  486
878  472
879  469
880  473
881  477
882  447
883  469
884  492
885  446
886  456
887  454
888  456
889  469
890  453
891  493
892  453
893  412
894  424
895  462
896  432
897  411
898  454
899  414
900  423
901  440
902  420
903  441
904  453
905  415
906  433
907  425
908  434
909  423
910  393
911  415
912  395
913  423
914  408
915  420
916  426
917  423
918  396
919  429
920  397
921  407
922  372
923  384
924  372
925  408
926  414
927  442
928  413
929  401
930  414
931  402
932  384
933  397
934  333
935  359
936  383
937  368
938  360
939  363
940  392
941  347
942  371
943  359
944  371
945  327
946  366
947  386
948  371
949  378
950  365
951  354
952  324
953  378
954  358
955  335
956  327
957  336
958  339
959  338
960  325
961  335
962  323
963  333
964  337
965  317
966  333
967  314
968  318
969  334
970  337
971  296
972  340
973  299
974  334
975  320
976  304
977  342
978  281
979  321
980  330
981  279
982  339
983  296
984  301
985  311
986  321
987  309
988  292
989  299
990  328
991  286
992  319
993  320
994  275
995  275
996  314
997  276
998  272
999  292
1000  288
1001  292
1002  267
1003  275
1004  296
1005  282
1006  258
1007  280
1008  270
1009  266
1010  292
1011  286
1012  301
1013  266
1014  293
1015  261
1016  295
1017  267
1018  258
1019  259
1020  269
1021  313
1022  257
1023  277
1024  255
1025  264
1026  260
1027  252
1028  277
1029  259
1030  237
1031  294
1032  256
1033  290
1034  257
1035  246
1036  256
1037  236
1038  243
1039  251
1040  246
1041  255
1042  228
1043  268
1044  209
1045  255
1046  227
1047  245
1048  245
1049  247
1050  240
1051  216
1052  208
1053  241
1054  244
1055  233
1056  224
1057  222
1058  200
1059  233
1060  209
1061  256
1062  250
1063  224
1064  213
1065  211
1066  253
1067  221
1068  210
1069  230
1070  212
1071  238
1072  222
1073  235
1074  230
1075  195
1076  202
1077  209
1078  207
1079  211
1080  221
1081  209
1082  173
1083  214
1084  184
1085  207
1086  196
1087  204
1088  192
1089  208
1090  210
1091  223
1092  181
1093  203
1094  176
1095  226
1096  183
1097  201
1098  189
1099  184
1100  182
1101  184
1102  209
1103  172
1104  158
1105  180
1106  172
1107  181
1108  181
1109  177
1110  176
1111  178
1112  163
1113  194
1114  175
1115  194
1116  168
1117  177
1118  173
1119  160
1120  152
1121  167
1122  166
1123  168
1124  172
1125  184
1126  164
1127  148
1128  169
1129  147
1130  177
1131  163
1132  160
1133  138
1134  153
1135  162
1136  183
1137  139
1138  169
1139  174
1140  159
1141  167
1142  176
1143  148
1144  160
1145  177
1146  141
1147  147
1148  149
1149  166
1150  147
1151  128
1152  142
1153  161
1154  138
1155  159
1156  168
1157  166
1158  128
1159  147
1160  128
1161  147
1162  149
1163  135
1164  148
1165  137
1166  148
1167  127
1168  140
1169  161
1170  161
1171  122
1172  140
1173  150
1174  138
1175  137
1176  136
1177  126
1178  136
1179  124
1180  133
1181  112
1182  131
1183  114
1184  140
1185  133
1186  115
1187  126
1188  121
1189  120
1190  115
1191  127
1192  120
1193  124
1194  113
1195  129
1196  112
1197  99
1198  123
1199  113
1200  122
1201  108
1202  120
1203  131
1204  95
1205  121
1206  104
1207  108
1208  136
1209  114
1210  101
1211  126
1212  84
1213  106
1214  109
1215  100
1216  128
1217  121
1218  115
1219  120
1220  107
1221  104
1222  90
1223  90
1224  92
1225  101
1226  116
1227  113
1228  109
1229  89
1230  94
1231  116
1232  97
1233  109
1234  82
1235  104
1236  103
1237  89
1238  93
1239  100
1240  95
1241  94
1242  96
1243  83
1244  105
1245  118
1246  104
1247  113
1248  102
1249  86
1250  95
1251  94
1252  102
1253  80
1254  93
1255  85
1256  82
1257  89
1258  97
1259  81
1260  95
1261  87
1262  105
1263  77
1264  59
1265  82
1266  106
1267  88
1268  89
1269  81
1270  72
1271  83
1272  87
1273  94
1274  65
1275  90
1276  72
1277  71
1278  74
1279  76
1280  69
1281  78
1282  83
1283  93
1284  81
1285  81
1286  76
1287  68
1288  66
1289  72
1290  77
1291  70
1292  65
1293  74
1294  78
1295  61
1296  63
1297  76
1298  80
1299  84
1300  89
1301  73
1302  67
1303  70
1304  59
1305  58
1306  50
1307  74
1308  60
1309  61
1310  64
1311  66
1312  64
1313  66
1314  63
1315  68
1316  63
1317  60
1318  69
1319  69
1320  66
1321  59
1322  58
1323  63
1324  62
1325  66
1326  64
1327  60
1328  74
1329  59
1330  63
1331  59
1332  61
1333  65
1334  68
1335  66
1336  68
1337  53
1338  59
1339  65
1340  48
1341  63
1342  66
1343  57
1344  56
1345  71
1346  74
1347  48
1348  55
1349  53
1350  55
1351  48
1352  49
1353  54
1354  45
1355  44
1356  43
1357  44
1358  53
1359  54
1360  47
1361  49
1362  39
1363  58
1364  41
1365  34
1366  45
1367  49
1368  52
1369  43
1370  46
1371  42
1372  57
1373  44
1374  36
1375  43
1376  48
1377  46
1378  42
1379  53
1380  41
1381  53
1382  53
1383  67
1384  41
1385  42
1386  54
1387  45
1388  46
1389  47
1390  40
1391  41
1392  47
1393  33
1394  47
1395  33
1396  50
1397  39
1398  39
1399  39
1400  44
1401  37
1402  31
1403  38
1404  43
1405  46
1406  31
1407  43
1408  46
1409  43
1410  40
1411  33
1412  42
1413  49
1414  27
1415  39
1416  40
1417  37
1418  41
1419  42
1420  42
1421  35
1422  35
1423  28
1424  26
1425  37
1426  29
1427  32
1428  26
1429  37
1430  39
1431  42
1432  39
1433  32
1434  34
1435  32
1436  40
1437  37
1438  34
1439  37
1440  32
1441  35
1442  34
1443  39
1444  30
1445  40
1446  29
1447  36
1448  27
1449  38
1450  27
1451  28
1452  25
1453  42
1454  26
1455  32
1456  32
1457  31
1458  32
1459  40
1460  35
1461  40
1462  31
1463  28
1464  23
1465  21
1466  31
1467  21
1468  29
1469  28
1470  27
1471  32
1472  25
1473  31
1474  33
1475  32
1476  24
1477  30
1478  39
1479  27
1480  29
1481  26
1482  36
1483  38
1484  26
1485  19
1486  21
1487  28
1488  24
1489  33
1490  25
1491  22
1492  32
1493  33
1494  22
1495  27
1496  26
1497  25
1498  40
1499  26
1500  24
1501  16
1502  35
1503  24
1504  19
1505  29
1506  22
1507  19
1508  25
1509  25
1510  23
1511  27
1512  23
1513  24
1514  21
1515  17
1516  11
1517  25
1518  25
1519  21
1520  21
1521  14
1522  24
1523  33
1524  13
1525  20
1526  15
1527  22
1528  25
1529  31
1530  25
1531  18
1532  21
1533  15
1534  21
1535  28
1536  26
1537  22
1538  22
1539  22
1540  19
1541  18
1542  25
1543  23
1544  15
1545  25
1546  22
1547  26
1548  30
1549  29
1550  18
1551  17
1552  23
1553  20
1554  20
1555  17
1556  19
1557  15
1558  18
1559  19
1560  21
1561  21
1562  18
1563  23
1564  21
1565  10
1566  18
1567  23
1568  18
1569  18
1570  12
1571  20
1572  32
1573  10
1574  9
1575  18
1576  23
1577  13
1578  23
1579  20
1580  21
1581  17
1582  14
1583  15
1584  14
1585  12
1586  13
1587  17
1588  15
1589  16
1590  13
1591  16
1592  20
1593  23
1594  16
1595  19
1596  14
1597  23
1598  17
1599  22
1600  8
1601  14
1602  19
1603  17
1604  11
1605  11
1606  14
1607  12
1608  18
1609  12
1610  9
1611  11
1612  11
1613  13
1614  17
1615  15
1616  14
1617  20
1618  9
1619  20
1620  14
1621  16
1622  15
1623  17
1624  14
1625  15
1626  7
1627  10
1628  8
1629  8
1630  10
1631  17
1632  14
1633  8
1634  14
1635  16
1636  14
1637  9
1638  17
1639  12
1640  12
1641  10
1642  11
1643  17
1644  11
1645  14
1646  16
1647  14
1648  15
1649  16
1650  13
1651  13
1652  14
1653  13
1654  14
1655  9
1656  11
1657  15
1658  10
1659  11
1660  10
1661  8
1662  20
1663  11
1664  14
1665  15
1666  7
1667  16
1668  11
1669  20
1670  8
1671  8
1672  7
1673  14
1674  6
1675  13
1676  15
1677  10
1678  14
1679  11
1680  18
1681  10
1682  9
1683  12
1684  14
1685  13
1686  11
1687  11
1688  8
1689  11
1690  7
1691  12
1692  12
1693  10
1694  13
1695  15
1696  8
1697  12
1698  9
1699  8
1700  6
1701  9
1702  8
1703  14
1704  10
1705  10
1706  10
1707  11
1708  10
1709  4
1710  12
1711  12
1712  10
1713  12
1714  12
1715  8
1716  8
1717  7
1718  7
1719  18
1720  9
1721  11
1722  13
1723  9
1724  9
1725  10
1726  8
1727  13
1728  19
1729  6
1730  7
1731  10
1732  13
1733  7
1734  5
1735  4
1736  10
1737  12
1738  10
1739  11
1740  15
1741  10
1742  4
1743  13
1744  6
1745  8
1746  6
1747  12
1748  10
1749  4
1750  9
1751  10
1752  13
1753  9
1754  8
1755  7
1756  5
1757  9
1758  10
1759  4
1760  9
1761  13
1762  4
1763  7
1764  4
1765  8
1766  8
1767  6
1768  6
1769  9
1770  7
1771  11
1772  11
1773  9
1774  10
1775  9
1776  3
1777  2
1778  8
1779  5
1780  8
1781  10
1782  5
1783  8
1784  5
1785  7
1786  9
1787  8
1788  4
1789  7
1790  5
1791  7
1792  9
1793  8
1794  8
1795  5
1796  6
1797  8
1798  8
1799  8
1800  10
1801  12
1802  7
1803  4
1804  7
1805  5
1806  4
1807  8
1808  10
1809  2
1810  6
1811  4
1812  7
1813  6
1814  11
1815  7
1816  10
1817  3
1818  5
1819  5
1820  5
1821  11
1822  5
1823  5
1824  8
1825  4
1826  10
1827  5
1828  10
1829  8
1830  7
1831  2
1832  7
1833  5
1834  6
1835  5
1836  3
1837  6
1838  6
1839  1
1840  3
1841  8
1842  5
1843  5
1844  3
1845  7
1846  5
1847  9
1848  9
1849  7
1850  6
1851  10
1852  5
1853  5
1854  6
1855  9
1856  3
1857  4
1858  8
1859  5
1860  12
1861  9
1862  11
1863  3
1864  5
1865  6
1866  12
1867  5
1868  5
1869  7
1870  8
1871  5
1872  7
1873  7
1874  7
1875  5
1876  5
1877  9
1878  4
1879  5
1880  6
1881  4
1882  7
1883  8
1884  8
1885  5
1886  5
1887  5
1888  3
1889  5
1890  8
1891  6
1892  4
1893  2
1894  3
1895  4
1896  2
1897  6
1898  6
1899  5
1900  5
1901  7
1902  5
1903  1
1904  7
1905  5
1906  6
1907  8
1908  3
1909  6
1910  5
1911  3
1912  5
1913  9
1914  2
1915  6
1916  12
1917  3
1918  5
1919  7
1920  5
1921  11
1922  4
1923  2
1924  3
1925  4
1926  2
1927  3
1928  6
1929  5
1930  5
1931  3
1932  2
1933  6
1934  7
1935  4
1936  5
1937  5
1938  6
1939  7
1940  9
1941  7
1942  5
1943  8
1944  3
1945  5
1946  2
1947  1
1948  3
1949  4
1950  5
1951  4
1952  5
1953  6
1954  4
1955  4
1956  4
1957  4
1958  6
1959  4
1960  9
1961  4
1962  9
1963  8
1964  5
1965  8
1966  5
1967  5
1968  7
1969  5
1970  7
1971  4
1972  9
1973  4
1974  3
1975  7
1976  5
1977  5
1978  7
1979  1
1980  1
1981  3
1982  4
1983  6
1984  4
1985  3
1986  4
1987  3
1988  2
1989  3
1990  10
1991  3
1992  5
1993  6
1994  4
1995  6
1996  2
1997  4
1998  7
1999  4
2000  3
2001  4
2002  7
2003  3
2004  3
2005  3
2006  2
2007  9
2008  5
2009  8
2010  9
2011  6
2012  4
2013  6
2014  1
2015  2
2016  1
2017  1
2018  5
2019  4
2020  4
2021  3
2022  4
2023  2
2024  6
2025  3
2026  5
2027  5
2028  6
2029  3
2030  4
2031  2
2032  7
2033  2
2034  6
2035  6
2036  4
2037  4
2038  6
2039  7
2040  3
2041  3
2042  4
2043  0
2044  5
2045  4
2046  0
2047  3
2048  5
2049  4
2050  5
2051  5
2052  1
2053  4
2054  1
2055  1
2056  1
2057  4
2058  4
2059  6
2060  5
2061  4
2062  4
2063  4
2064  6
2065  2
2066  4
2067  5
2068  9
2069  4
2070  2
2071  4
2072  4
2073  1
2074  3
2075  1
2076  7
2077  3
2078  7
2079  2
2080  2
2081  4
2082  4
2083  3
2084  3
2085  5
2086  3
2087  2
2088  1
2089  5
2090  2
2091  5
2092  3
2093  2
2094  2
2095  8
2096  4
2097  3
2098  2
2099  5
2100  8
2101  5
2102  2
2103  4
2104  8
2105  0
2106  4
2107  3
2108  0
2109  5
2110  5
2111  2
2112  10
2113  3
2114  5
2115  2
2116  1
2117  5
2118  4
2119  2
2120  2
2121  2
2122  8
2123  2
2124  0
2125  2
2126  0
2127  5
2128  7
2129  2
2130  4
2131  2
2132  3
2133  3
2134  5
2135  2
2136  7
2137  10
2138  2
2139  5
2140  6
2141  3
2142  3
2143  2
2144  2
2145  5
2146  5
2147  4
2148  3
2149  3
2150  5
2151  3
2152  7
2153  2
2154  5
2155  7
2156  4
2157  2
2158  4
2159  3
2160  3
2161  1
2162  5
2163  3
2164  4
2165  7
2166  4
2167  4
2168  1
2169  9
2170  4
2171  5
2172  3
2173  2
2174  3
2175  5
2176  6
2177  5
2178  2
2179  3
2180  3
2181  4
2182  3
2183  8
2184  3
2185  3
2186  3
2187  5
2188  2
2189  0
2190  3
2191  3
2192  4
2193  5
2194  6
2195  5
2196  3
2197  4
2198  5
2199  6
2200  3
2201  5
2202  2
2203  3
2204  2
2205  1
2206  5
2207  3
2208  6
2209  6
2210  7
2211  6
2212  4
2213  3
2214  2
2215  4
2216  5
2217  6
2218  2
2219  1
2220  2
2221  5
2222  4
2223  3
2224  2
2225  2
2226  2
2227  2
2228  3
2229  5
2230  2
2231  4
2232  3
2233  6
2234  6
2235  4
2236  0
2237  7
2238  3
2239  4
2240  5
2241  4
2242  4
2243  2
2244  2
2245  3
2246  6
2247  1
2248  2
2249  2
2250  2
2251  5
2252  4
2253  6
2254  3
2255  3
2256  4
2257  5
2258  2
2259  4
2260  7
2261  1
2262  2
2263  4
2264  5
2265  4
2266  4
2267  6
2268  3
2269  1
2270  2
2271  4
2272  0
2273  3
2274  3
2275  2
2276  3
2277  2
2278  1
2279  3
2280  6
2281  2
2282  1
2283  5
2284  1
2285  4
2286  4
2287  1
2288  1
2289  2
2290  1
2291  8
2292  7
2293  2
2294  2
2295  6
2296  1
2297  2
2298  2
2299  3
2300  1
2301  4
2302  1
2303  5
2304  5
2305  2
2306  3
2307  0
2308  3
2309  3
2310  5
2311  1
2312  2
2313  0
2314  6
2315  4
2316  1
2317  2
2318  0
2319  2
2320  2
2321  1
2322  1
2323  1
2324  3
2325  4
2326  6
2327  7
2328  3
2329  4
2330  2
2331  2
2332  1
2333  4
2334  1
2335  6
2336  3
2337  6
2338  1
2339  2
2340  2
2341  3
2342  5
2343  2
2344  2
2345  3
2346  4
2347  2
2348  1
2349  3
2350  4
2351  1
2352  0
2353  3
2354  1
2355  5
2356  6
2357  0
2358  1
2359  1
2360  1
2361  1
2362  4
2363  3
2364  3
2365  1
2366  0
2367  4
2368  0
2369  3
2370  4
2371  2
2372  2
2373  0
2374  5
2375  10
2376  2
2377  3
2378  3
2379  2
2380  3
2381  1
2382  3
2383  3
2384  2
2385  3
2386  2
2387  3
2388  4
2389  5
2390  4
2391  1
2392  5
2393  1
2394  2
2395  5
2396  2
2397  4
2398  2
2399  1
2400  4
2401  4
2402  1
2403  3
2404  0
2405  3
2406  5
2407  6
2408  4
2409  3
2410  7
2411  2
2412  1
2413  4
2414  0
2415  2
2416  3
2417  2
2418  3
2419  1
2420  0
2421  1
2422  6
2423  5
2424  3
2425  1
2426  4
2427  4
2428  2
2429  4
2430  3
2431  0
2432  4
2433  2
2434  3
2435  4
2436  1
2437  1
2438  3
2439  1
2440  1
2441  2
2442  4
2443  1
2444  3
2445  1
2446  3
2447  0
2448  3
2449  2
2450  1
2451  2
2452  2
2453  2
2454  0
2455  0
2456  6
2457  2
2458  1
2459  4
2460  2
2461  5
2462  0
2463  2
2464  1
2465  5
2466  1
2467  1
2468  1
2469  6
2470  1
2471  1
2472  3
2473  1
2474  3
2475  1
2476  1
2477  2
2478  1
2479  2
2480  1
2481  0
2482  1
2483  1
2484  3
2485  3
2486  3
2487  3
2488  0
2489  0
2490  3
2491  1
2492  0
2493  1
2494  1
2495  0
2496  2
2497  2
2498  1
2499  4
2500  1
2501  2
2502  2
2503  3
2504  1
2505  0
2506  1
2507  3
2508  4
2509  2
2510  3
2511  3
2512  1
2513  4
2514  3
2515  2
2516  0
2517  2
2518  3
2519  1
2520  2
2521  1
2522  2
2523  1
2524  5
2525  2
2526  3
2527  3
2528  2
2529  4
2530  0
2531  4
2532  2
2533  1
2534  2
2535  2
2536  2
2537  3
2538  3
2539  1
2540  2
2541  3
2542  3
2543  3
2544  2
2545  1
2546  2
2547  5
2548  2
2549  3
2550  3
2551  4
2552  4
2553  0
2554  1
2555  2
2556  2
2557  3
2558  3
2559  4
2560  2
2561  2
2562  3
2563  0
2564  1
2565  1
2566  5
2567  3
2568  2
2569  3
2570  3
2571  2
2572  2
2573  2
2574  4
2575  4
2576  1
2577  0
2578  4
2579  2
2580  3
2581  2
2582  4
2583  2
2584  1
2585  5
2586  1
2587  2
2588  1
2589  1
2590  3
2591  0
2592  4
2593  2
2594  2
2595  1
2596  1
2597  3
2598  2
2599  3
2600  4
2601  1
2602  3
2603  3
2604  2
2605  3
2606  4
2607  1
2608  3
2609  2
2610  1
2611  2
2612  5
2613  2
2614  4
2615  1
2616  2
2617  3
2618  1
2619  2
2620  2
2621  1
2622  2
2623  3
2624  5
2625  2
2626  1
2627  3
2628  2
2629  2
2630  1
2631  2
2632  3
2633  2
2634  0
2635  4
2636  2
2637  2
2638  3
2639  3
2640  3
2641  1
2642  2
2643  2
2644  1
2645  3
2646  4
2647  3
2648  2
2649  2
2650  2
2651  1
2652  3
2653  3
2654  1
2655  4
2656  2
2657  1
2658  3
2659  1
2660  4
2661  3
2662  3
2663  2
2664  2
2665  1
2666  6
2667  3
2668  3
2669  1
2670  1
2671  2
2672  2
2673  1
2674  3
2675  1
2676  4
2677  2
2678  1
2679  0
2680  2
2681  1
2682  5
2683  3
2684  2
2685  4
2686  2
2687  6
2688  1
2689  4
2690  7
2691  4
2692  1
2693  2
2694  4
2695  2
2696  4
2697  2
2698  4
2699  1
2700  0
2701  2
2702  3
2703  4
2704  1
2705  5
2706  3
2707  3
2708  2
2709  1
2710  2
2711  1
2712  2
2713  2
2714  4
2715  4
2716  2
2717  4
2718  1
2719  2
2720  0
2721  6
2722  0
2723  3
2724  1
2725  3
2726  1
2727  2
2728  5
2729  1
2730  1
2731  4
2732  1
2733  2
2734  2
2735  1
2736  2
2737  1
2738  0
2739  1
2740  2
2741  3
2742  1
2743  2
2744  1
2745  0
2746  4
2747  1
2748  4
2749  1
2750  1
2751  4
2752  3
2753  3
2754  2
2755  3
2756  1
2757  1
2758  5
2759  0
2760  1
2761  3
2762  1
2763  4
2764  3
2765  2
2766  3
2767  3
2768  3
2769  1
2770  1
2771  1
2772  3
2773  2
2774  3
2775  2
2776  3
2777  2
2778  2
2779  2
2780  3
2781  2
2782  4
2783  3
2784  0
2785  2
2786  0
2787  0
2788  1
2789  2
2790  3
2791  0
2792  3
2793  4
2794  2
2795  1
2796  0
2797  3
2798  4
2799  1
2800  2
2801  4
2802  3
2803  2
2804  1
2805  5
2806  3
2807  0
2808  9
2809  5
2810  4
2811  4
2812  5
2813  4
2814  4
2815  0
2816  2
2817  1
2818  2
2819  1
2820  4
2821  1
2822  4
2823  1
2824  0
2825  2
2826  1
2827  3
2828  2
2829  1
2830  3
2831  3
2832  1
2833  1
2834  2
2835  4
2836  4
2837  1
2838  3
2839  3
2840  3
2841  1
2842  2
2843  3
2844  0
2845  0
2846  2
2847  3
2848  0
2849  2
2850  4
2851  2
2852  1
2853  0
2854  7
2855  2
2856  3
2857  4
2858  2
2859  5
2860  1
2861  2
2862  2
2863  2
2864  4
2865  0
2866  4
2867  2
2868  5
2869  1
2870  5
2871  4
2872  3
2873  3
2874  1
2875  3
2876  3
2877  1
2878  3
2879  2
2880  3
2881  4
2882  4
2883  0
2884  2
2885  1
2886  4
2887  1
2888  1
2889  5
2890  2
2891  0
2892  0
2893  3
2894  1
2895  5
2896  3
2897  5
2898  3
2899  4
2900  1
2901  4
2902  3
2903  3
2904  2
2905  0
2906  3
2907  1
2908  1
2909  3
2910  3
2911  4
2912  1
2913  6
2914  2
2915  0
2916  0
2917  2
2918  3
2919  0
2920  1
2921  3
2922  5
2923  0
2924  2
2925  2
2926  2
2927  4
2928  5
2929  3
2930  1
2931  4
2932  1
2933  0
2934  1
2935  5
2936  1
2937  3
2938  3
2939  0
2940  1
2941  0
2942  3
2943  4
2944  4
2945  3
2946  1
2947  2
2948  2
2949  2
2950  2
2951  1
2952  2
2953  4
2954  0
2955  3
2956  2
2957  1
2958  3
2959  2
2960  0
2961  2
2962  2
2963  1
2964  6
2965  4
2966  1
2967  5
2968  2
2969  2
2970  4
2971  2
2972  3
2973  2
2974  3
2975  3
2976  3
2977  2
2978  2
2979  0
2980  2
2981  1
2982  1
2983  4
2984  1
2985  0
2986  1
2987  4
2988  2
2989  1
2990  2
2991  2
2992  3
2993  2
2994  1
2995  1
2996  2
2997  1
2998  2
2999  6
3000  3
3001  3
3002  4
3003  3
3004  3
3005  4
3006  2
3007  1
3008  0
3009  2
3010  3
3011  1
3012  3
3013  3
3014  2
3015  1
3016  1
3017  2
3018  1
3019  1
3020  3
3021  0
3022  2
3023  3
3024  3
3025  1
3026  2
3027  2
3028  1
3029  6
3030  1
3031  2
3032  2
3033  1
3034  1
3035  5
3036  2
3037  2
3038  2
3039  3
3040  1
3041  4
3042  1
3043  2
3044  3
3045  5
3046  2
3047  4
3048  4
3049  2
3050  2
3051  2
3052  4
3053  2
3054  2
3055  1
3056  1
3057  2
3058  2
3059  2
3060  2
3061  3
3062  2
3063  2
3064  0
3065  4
3066  3
3067  5
3068  3
3069  4
3070  2
3071  3
3072  1
3073  0
3074  2
3075  1
3076  3
3077  1
3078  2
3079  3
3080  3
3081  1
3082  1
3083  0
3084  2
3085  1
3086  1
3087  1
3088  3
3089  4
3090  2
3091  1
3092  0
3093  2
3094  1
3095  2
3096  4
3097  1
3098  2
3099  5
3100  3
3101  2
3102  1
3103  5
3104  1
3105  4
3106  1
3107  2
3108  1
3109  0
3110  1
3111  4
3112  1
3113  2
3114  1
3115  1
3116  3
3117  1
3118  0
3119  1
3120  2
3121  1
3122  2
3123  3
3124  5
3125  4
3126  2
3127  2
3128  1
3129  4
3130  1
3131  4
3132  4
3133  1
3134  2
3135  2
3136  0
3137  1
3138  3
3139  2
3140  5
3141  4
3142  4
3143  0
3144  3
3145  1
3146  3
3147  2
3148  4
3149  3
3150  2
3151  5
3152  0
3153  2
3154  6
3155  3
3156  3
3157  3
3158  2
3159  2
3160  3
3161  2
3162  3
3163  2
3164  5
3165  0
3166  1
3167  1
3168  2
3169  3
3170  2
3171  1
3172  1
3173  2
3174  2
3175  1
3176  0
3177  4
3178  2
3179  1
3180  2
3181  5
3182  1
3183  1
3184  3
3185  0
3186  4
3187  2
3188  2
3189  4
3190  5
3191  3
3192  1
3193  4
3194  1
3195  3
3196  1
3197  3
3198  3
3199  0
3200  2
3201  0
3202  3
3203  1
3204  1
3205  4
3206  2
3207  2
3208  1
3209  1
3210  4
3211  2
3212  1
3213  3
3214  3
3215  3
3216  1
3217  5
3218  3
3219  2
3220  5
3221  2
3222  2
3223  5
3224  0
3225  1
3226  2
3227  1
3228  6
3229  2
3230  2
3231  5
3232  3
3233  3
3234  4
3235  1
3236  2
3237  4
3238  0
3239  1
3240  2
3241  0
3242  2
3243  2
3244  4
3245  0
3246  5
3247  2
3248  1
3249  3
3250  1
3251  5
3252  4
3253  2
3254  2
3255  2
3256  1
3257  2
3258  5
3259  2
3260  3
3261  3
3262  2
3263  5
3264  4
3265  4
3266  4
3267  5
3268  1
3269  0
3270  2
3271  4
3272  2
3273  2
3274  0
3275  2
3276  3
3277  1
3278  3
3279  3
3280  4
3281  3
3282  1
3283  0
3284  4
3285  3
3286  1
3287  1
3288  2
3289  4
3290  2
3291  1
3292  1
3293  1
3294  0
3295  0
3296  3
3297  4
3298  3
3299  3
3300  0
3301  1
3302  1
3303  0
3304  2
3305  4
3306  3
3307  4
3308  6
3309  2
3310  0
3311  2
3312  2
3313  0
3314  0
3315  4
3316  1
3317  0
3318  1
3319  0
3320  2
3321  3
3322  2
3323  1
3324  2
3325  0
3326  1
3327  1
3328  1
3329  2
3330  0
3331  3
3332  1
3333  2
3334  3
3335  0
3336  1
3337  2
3338  1
3339  2
3340  3
3341  2
3342  3
3343  2
3344  0
3345  1
3346  0
3347  1
3348  2
3349  1
3350  3
3351  0
3352  0
3353  3
3354  5
3355  2
3356  3
3357  3
3358  0
3359  3
3360  2
3361  0
3362  1
3363  1
3364  0
3365  6
3366  2
3367  3
3368  1
3369  2
3370  1
3371  0
3372  3
3373  2
3374  3
3375  2
3376  2
3377  4
3378  6
3379  2
3380  3
3381  4
3382  1
3383  2
3384  4
3385  1
3386  0
3387  3
3388  2
3389  1
3390  4
3391  2
3392  2
3393  2
3394  3
3395  2
3396  2
3397  1
3398  0
3399  0
3400  3
3401  2
3402  3
3403  2
3404  3
3405  1
3406  1
3407  1
3408  3
3409  1
3410  2
3411  1
3412  0
3413  3
3414  1
3415  3
3416  0
3417  2
3418  1
3419  2
3420  4
3421  4
3422  1
3423  3
3424  1
3425  2
3426  2
3427  3
3428  3
3429  1
3430  2
3431  3
3432  0
3433  2
3434  0
3435  2
3436  2
3437  1
3438  1
3439  1
3440  1
3441  2
3442  1
3443  5
3444  3
3445  1
3446  3
3447  5
3448  1
3449  4
3450  2
3451  0
3452  0
3453  3
3454  2
3455  1
3456  4
3457  1
3458  3
3459  4
3460  2
3461  0
3462  1
3463  1
3464  4
3465  3
3466  1
3467  2
3468  3
3469  0
3470  2
3471  3
3472  1
3473  3
3474  2
3475  4
3476  3
3477  2
3478  0
3479  1
3480  3
3481  2
3482  0
3483  1
3484  0
3485  1
3486  3
3487  0
3488  1
3489  1
3490  1
3491  2
3492  4
3493  0
3494  1
3495  1
3496  2
3497  2
3498  3
3499  2
3500  2
3501  3
3502  0
3503  1
3504  4
3505  1
3506  1
3507  2
3508  0
3509  0
3510  1
3511  2
3512  4
3513  1
3514  2
3515  3
3516  0
3517  1
3518  0
3519  0
3520  2
3521  4
3522  1
3523  1
3524  1
3525  1
3526  2
3527  3
3528  4
3529  2
3530  1
3531  2
3532  2
3533  1
3534  5
3535  1
3536  1
3537  2
3538  2
3539  1
3540  2
3541  1
3542  1
3543  3
3544  5
3545  2
3546  2
3547  2
3548  2
3549  1
3550  4
3551  1
3552  5
3553  4
3554  1
3555  3
3556  1
3557  0
3558  2
3559  2
3560  2
3561  2
3562  1
3563  0
3564  1
3565  1
3566  6
3567  0
3568  2
3569  2
3570  0
3571  2
3572  1
3573  3
3574  0
3575  0
3576  0
3577  3
3578  5
3579  0
3580  2
3581  2
3582  3
3583  4
3584  1
3585  2
3586  1
3587  2
3588  1
3589  2
3590  1
3591  1
3592  0
3593  1
3594  0
3595  0
3596  1
3597  4
3598  3
3599  3
3600  0
3601  0
3602  0
3603  2
3604  1
3605  2
3606  1
3607  1
3608  0
3609  3
3610  2
3611  1
3612  3
3613  2
3614  1
3615  0
3616  3
3617  2
3618  1
3619  3
3620  2
3621  2
3622  2
3623  4
3624  3
3625  0
3626  2
3627  1
3628  1
3629  6
3630  1
3631  0
3632  0
3633  1
3634  2
3635  3
3636  3
3637  0
3638  3
3639  3
3640  3
3641  4
3642  2
3643  0
3644  4
3645  0
3646  2
3647  4
3648  0
3649  2
3650  2
3651  2
3652  2
3653  1
3654  3
3655  2
3656  0
3657  1
3658  0
3659  1
3660  4
3661  1
3662  1
3663  2
3664  2
3665  2
3666  0
3667  0
3668  4
3669  1
3670  0
3671  2
3672  2
3673  2
3674  0
3675  5
3676  1
3677  2
3678  1
3679  2
3680  2
3681  1
3682  3
3683  4
3684  1
3685  1
3686  3
3687  0
3688  0
3689  4
3690  1
3691  1
3692  3
3693  1
3694  0
3695  1
3696  0
3697  2
3698  3
3699  0
3700  0
3701  1
3702  2
3703  2
3704  0
3705  1
3706  0
3707  0
3708  1
3709  4
3710  2
3711  5
3712  5
3713  0
3714  1
3715  6
3716  4
3717  1
3718  0
3719  1
3720  3
3721  1
3722  1
3723  2
3724  2
3725  1
3726  0
3727  0
3728  2
3729  1
3730  0
3731  0
3732  1
3733  1
3734  1
3735  0
3736  2
3737  2
3738  2
3739  0
3740  1
3741  3
3742  0
3743  3
3744  1
3745  0
3746  3
3747  0
3748  2
3749  1
3750  3
3751  1
3752  1
3753  0
3754  1
3755  3
3756  1
3757  0
3758  0
3759  1
3760  1
3761  3
3762  0
3763  2
3764  2
3765  1
3766  1
3767  4
3768  2
3769  0
3770  0
3771  1
3772  0
3773  2
3774  1
3775  6
3776  1
3777  2
3778  1
3779  1
3780  4
3781  0
3782  2
3783  2
3784  2
3785  1
3786  2
3787  0
3788  0
3789  4
3790  0
3791  1
3792  2
3793  0
3794  0
3795  1
3796  0
3797  1
3798  1
3799  0
3800  0
3801  0
3802  5
3803  2
3804  3
3805  1
3806  0
3807  0
3808  2
3809  0
3810  2
3811  0
3812  0
3813  0
3814  0
3815  3
3816  1
3817  2
3818  0
3819  1
3820  2
3821  1
3822  0
3823  1
3824  1
3825  1
3826  0
3827  2
3828  1
3829  1
3830  3
3831  2
3832  1
3833  1
3834  2
3835  1
3836  1
3837  0
3838  1
3839  0
3840  1
3841  0
3842  3
3843  3
3844  0
3845  0
3846  2
3847  3
3848  3
3849  2
3850  1
3851  0
3852  2
3853  0
3854  0
3855  2
3856  0
3857  1
3858  1
3859  1
3860  0
3861  3
3862  0
3863  1
3864  2
3865  2
3866  1
3867  3
3868  3
3869  2
3870  0
3871  0
3872  0
3873  4
3874  1
3875  2
3876  1
3877  3
3878  2
3879  1
3880  1
3881  1
3882  4
3883  0
3884  0
3885  1
3886  2
3887  1
3888  0
3889  0
3890  3
3891  0
3892  3
3893  3
3894  0
3895  3
3896  3
3897  1
3898  0
3899  0
3900  3
3901  1
3902  1
3903  2
3904  0
3905  0
3906  3
3907  2
3908  2
3909  2
3910  2
3911  2
3912  0
3913  0
3914  1
3915  1
3916  1
3917  2
3918  1
3919  0
3920  3
3921  1
3922  2
3923  0
3924  3
3925  0
3926  1
3927  1
3928  1
3929  1
3930  2
3931  4
3932  0
3933  0
3934  1
3935  1
3936  1
3937  1
3938  0
3939  1
3940  1
3941  2
3942  2
3943  2
3944  3
3945  1
3946  1
3947  0
3948  1
3949  2
3950  3
3951  1
3952  1
3953  1
3954  0
3955  1
3956  2
3957  2
3958  3
3959  2
3960  3
3961  2
3962  2
3963  1
3964  2
3965  5
3966  1
3967  1
3968  0
3969  1
3970  1
3971  0
3972  1
3973  2
3974  0
3975  1
3976  3
3977  1
3978  2
3979  1
3980  1
3981  1
3982  2
3983  0
3984  1
3985  1
3986  4
3987  1
3988  3
3989  1
3990  2
3991  0
3992  0
3993  2
3994  2
3995  1
3996  3
3997  2
3998  3
3999  4
4000  0
4001  1
4002  1
4003  0
4004  1
4005  0
4006  0
4007  2
4008  2
4009  2
4010  1
4011  3
4012  0
4013  2
4014  2
4015  4
4016  4
4017  0
4018  1
4019  0
4020  2
4021  2
4022  2
4023  0
4024  0
4025  0
4026  2
4027  1
4028  1
4029  1
4030  1
4031  0
4032  0
4033  5
4034  2
4035  2
4036  2
4037  2
4038  2
4039  1
4040  0
4041  1
4042  1
4043  2
4044  2
4045  3
4046  0
4047  1
4048  3
4049  0
4050  0
4051  2
4052  1
4053  0
4054  5
4055  1
4056  1
4057  0
4058  2
4059  1
4060  0
4061  2
4062  1
4063  1
4064  2
4065  2
4066  0
4067  1
4068  2
4069  2
4070  1
4071  1
4072  1
4073  2
4074  1
4075  0
4076  0
4077  0
4078  4
4079  1
4080  5
4081  0
4082  0
4083  3
4084  2
4085  0
4086  2
4087  1
4088  2
4089  2
4090  1
4091  0
4092  0
4093  2
4094  1
4095  2
4096  3
4097  1
4098  1
4099  0
4100  2
4101  0
4102  3
4103  0
4104  1
4105  0
4106  3
4107  0
4108  2
4109  0
4110  3
4111  0
4112  1
4113  1
4114  0
4115  2
4116  3
4117  3
4118  2
4119  2
4120  0
4121  3
4122  2
4123  5
4124  0
4125  0
4126  2
4127  1
4128  1
4129  3
4130  0
4131  2
4132  0
4133  1
4134  1
4135  3
4136  0
4137  1
4138  2
4139  1
4140  1
4141  2
4142  2
4143  1
4144  1
4145  0
4146  2
4147  2
4148  0
4149  0
4150  0
4151  1
4152  3
4153  1
4154  1
4155  0
4156  1
4157  0
4158  1
4159  0
4160  1
4161  1
4162  2
4163  1
4164  1
4165  1
4166  4
4167  0
4168  3
4169  2
4170  2
4171  0
4172  2
4173  1
4174  2
4175  2
4176  2
4177  1
4178  0
4179  4
4180  0
4181  0
4182  0
4183  2
4184  1
4185  1
4186  1
4187  2
4188  0
4189  2
4190  3
4191  1
4192  2
4193  0
4194  0
4195  2
4196  2
4197  2
4198  0
4199  1
4200  1
4201  1
4202  3
4203  0
4204  3
4205  3
4206  0
4207  1
4208  3
4209  3
4210  0
4211  3
4212  2
4213  3
4214  1
4215  0
4216  2
4217  2
4218  3
4219  3
4220  3
4221  0
4222  2
4223  2
4224  2
4225  3
4226  0
4227  2
4228  0
4229  2
4230  0
4231  2
4232  3
4233  0
4234  2
4235  2
4236  1
4237  1
4238  2
4239  2
4240  0
4241  0
4242  0
4243  0
4244  2
4245  1
4246  3
4247  2
4248  1
4249  0
4250  4
4251  1
4252  2
4253  0
4254  1
4255  2
4256  0
4257  1
4258  2
4259  2
4260  1
4261  2
4262  0
4263  1
4264  2
4265  3
4266  2
4267  1
4268  1
4269  0
4270  2
4271  0
4272  1
4273  0
4274  1
4275  2
4276  2
4277  1
4278  1
4279  3
4280  1
4281  0
4282  0
4283  1
4284  1
4285  1
4286  1
4287  1
4288  0
4289  2
4290  0
4291  3
4292  1
4293  2
4294  1
4295  2
4296  1
4297  1
4298  1
4299  0
4300  3
4301  1
4302  0
4303  2
4304  0
4305  3
4306  0
4307  3
4308  0
4309  1
4310  1
4311  0
4312  2
4313  0
4314  1
4315  2
4316  0
4317  0
4318  1
4319  0
4320  0
4321  3
4322  2
4323  0
4324  2
4325  1
4326  0
4327  1
4328  2
4329  0
4330  0
4331  1
4332  2
4333  1
4334  2
4335  1
4336  0
4337  0
4338  2
4339  0
4340  1
4341  2
4342  1
4343  0
4344  4
4345  0
4346  1
4347  1
4348  1
4349  2
4350  2
4351  2
4352  0
4353  0
4354  1
4355  3
4356  1
4357  3
4358  0
4359  1
4360  1
4361  1
4362  0
4363  1
4364  2
4365  2
4366  2
4367  3
4368  2
4369  1
4370  0
4371  1
4372  1
4373  0
4374  1
4375  0
4376  3
4377  2
4378  0
4379  2
4380  0
4381  3
4382  2
4383  0
4384  2
4385  1
4386  2
4387  1
4388  1
4389  2
4390  0
4391  1
4392  0
4393  1
4394  0
4395  1
4396  3
4397  2
4398  0
4399  2
4400  2
4401  2
4402  1
4403  0
4404  0
4405  3
4406  1
4407  4
4408  0
4409  1
4410  2
4411  0
4412  0
4413  1
4414  2
4415  1
4416  0
4417  1
4418  1
4419  0
4420  2
4421  2
4422  3
4423  3
4424  0
4425  0
4426  2
4427  1
4428  3
4429  1
4430  2
4431  1
4432  0
4433  1
4434  0
4435  1
4436  2
4437  2
4438  0
4439  3
4440  0
4441  1
4442  1
4443  2
4444  2
4445  1
4446  1
4447  0
4448  2
4449  0
4450  3
4451  5
4452  3
4453  0
4454  1
4455  1
4456  2
4457  1
4458  1
4459  2
4460  2
4461  1
4462  0
4463  0
4464  2
4465  0
4466  0
4467  2
4468  3
4469  1
4470  2
4471  1
4472  0
4473  0
4474  0
4475  1
4476  0
4477  0
4478  1
4479  1
4480  1
4481  2
4482  0
4483  0
4484  0
4485  2
4486  0
4487  3
4488  2
4489  3
4490  0
4491  1
4492  2
4493  0
4494  4
4495  2
4496  1
4497  1
4498  0
4499  2
4500  1
4501  1
4502  1
4503  1
4504  0
4505  0
4506  1
4507  0
4508  0
4509  1
4510  0
4511  1
4512  4
4513  1
4514  0
4515  1
4516  1
4517  2
4518  1
4519  2
4520  1
4521  1
4522  1
4523  4
4524  2
4525  0
4526  2
4527  0
4528  2
4529  0
4530  1
4531  2
4532  0
4533  1
4534  1
4535  0
4536  3
4537  1
4538  1
4539  1
4540  0
4541  1
4542  3
4543  4
4544  0
4545  1
4546  0
4547  0
4548  1
4549  0
4550  0
4551  0
4552  1
4553  1
4554  2
4555  2
4556  2
4557  2
4558  3
4559  3
4560  3
4561  0
4562  0
4563  0
4564  1
4565  2
4566  1
4567  2
4568  3
4569  2
4570  2
4571  1
4572  1
4573  2
4574  2
4575  0
4576  0
4577  2
4578  2
4579  2
4580  3
4581  2
4582  2
4583  0
4584  4
4585  0
4586  0
4587  2
4588  3
4589  0
4590  0
4591  1
4592  1
4593  0
4594  1
4595  2
4596  0
4597  1
4598  1
4599  0
4600  0
4601  2
4602  2
4603  0
4604  2
4605  1
4606  4
4607  1
4608  1
4609  1
4610  0
4611  2
4612  0
4613  3
4614  4
4615  1
4616  2
4617  2
4618  2
4619  1
4620  1
4621  3
4622  1
4623  1
4624  1
4625  2
4626  2
4627  3
4628  1
4629  4
4630  2
4631  2
4632  2
4633  0
4634  0
4635  2
4636  3
4637  1
4638  1
4639  0
4640  1
4641  2
4642  1
4643  3
4644  1
4645  0
4646  0
4647  0
4648  3
4649  2
4650  0
4651  0
4652  2
4653  2
4654  1
4655  0
4656  2
4657  2
4658  2
4659  0
4660  0
4661  0
4662  0
4663  0
4664  2
4665  0
4666  3
4667  0
4668  1
4669  1
4670  1
4671  1
4672  0
4673  1
4674  3
4675  3
4676  1
4677  1
4678  2
4679  1
4680  1
4681  2
4682  0
4683  2
4684  0
4685  5
4686  1
4687  2
4688  2
4689  2
4690  1
4691  1
4692  2
4693  1
4694  1
4695  3
4696  2
4697  1
4698  0
4699  1
4700  1
4701  0
4702  2
4703  3
4704  1
4705  2
4706  0
4707  2
4708  0
4709  2
4710  1
4711  0
4712  1
4713  0
4714  1
4715  1
4716  1
4717  1
4718  1
4719  1
4720  1
4721  0
4722  2
4723  0
4724  1
4725  2
4726  3
4727  2
4728  1
4729  3
4730  2
4731  0
4732  1
4733  1
4734  3
4735  4
4736  2
4737  4
4738  3
4739  3
4740  1
4741  2
4742  1
4743  3
4744  1
4745  5
4746  4
4747  1
4748  2
4749  1
4750  3
4751  2
4752  1
4753  2
4754  2
4755  0
4756  3
4757  4
4758  2
4759  3
4760  4
4761  3
4762  7
4763  6
4764  1
4765  5
4766  5
4767  3
4768  7
4769  5
4770  6
4771  2
4772  4
4773  7
4774  5
4775  3
4776  6
4777  10
4778  4
4779  6
4780  6
4781  16
4782  5
4783  3
4784  7
4785  7
4786  3
4787  9
4788  6
4789  9
4790  8
4791  11
4792  10
4793  10
4794  3
4795  7
4796  3
4797  8
4798  2
4799  3
4800  10
4801  4
4802  5
4803  7
4804  7
4805  6
4806  9
4807  6
4808  4
4809  7
4810  7
4811  2
4812  4
4813  8
4814  4
4815  2
4816  3
4817  0
4818  1
4819  4
4820  1
4821  2
4822  6
4823  6
4824  2
4825  4
4826  2
4827  4
4828  1
4829  1
4830  0
4831  3
4832  0
4833  1
4834  2
4835  0
4836  3
4837  5
4838  2
4839  1
4840  1
4841  3
4842  1
4843  1
4844  0
4845  2
4846  3
4847  3
4848  1
4849  0
4850  2
4851  2
4852  5
4853  3
4854  1
4855  2
4856  3
4857  4
4858  3
4859  1
4860  1
4861  3
4862  0
4863  2
4864  2
4865  2
4866  2
4867  3
4868  4
4869  4
4870  1
4871  5
4872  0
4873  1
4874  2
4875  3
4876  3
4877  3
4878  0
4879  2
4880  1
4881  0
4882  1
4883  1
4884  1
4885  3
4886  2
4887  2
4888  3
4889  6
4890  3
4891  2
4892  2
4893  4
4894  1
4895  2
4896  0
4897  5
4898  5
4899  2
4900  3
4901  2
4902  3
4903  3
4904  5
4905  6
4906  5
4907  6
4908  2
4909  3
4910  3
4911  4
4912  3
4913  8
4914  6
4915  5
4916  4
4917  7
4918  4
4919  9
4920  6
4921  8
4922  16
4923  13
4924  15
4925  12
4926  14
4927  16
4928  12
4929  18
4930  25
4931  21
4932  30
4933  25
4934  25
4935  30
4936  38
4937  31
4938  35
4939  41
4940  45
4941  46
4942  50
4943  40
4944  62
4945  60
4946  54
4947  68
4948  84
4949  75
4950  68
4951  84
4952  78
4953  79
4954  84
4955  74
4956  94
4957  91
4958  101
4959  80
4960  102
4961  90
4962  101
4963  83
4964  89
4965  84
4966  95
4967  98
4968  77
4969  77
4970  80
4971  77
4972  61
4973  70
4974  65
4975  65
4976  55
4977  57
4978  51
4979  35
4980  42
4981  40
4982  51
4983  39
4984  27
4985  31
4986  20
4987  19
4988  20
4989  13
4990  16
4991  10
4992  14
4993  14
4994  11
4995  10
4996  10
4997  10
4998  7
4999  7
5000  6
5001  4
5002  5
5003  5
5004  6
5005  4
5006  3
5007  4
5008  2
5009  2
5010  3
5011  3
5012  5
5013  0
5014  0
5015  4
5016  3
5017  2
5018  3
5019  1
5020  2
5021  4
5022  4
5023  0
5024  2
5025  1
5026  2
5027  2
5028  3
5029  0
5030  0
5031  0
5032  0
5033  0
5034  1
5035  1
5036  3
5037  3
5038  0
5039  1
5040  2
5041  0
5042  0
5043  3
5044  2
5045  1
5046  5
5047  0
5048  3
5049  0
5050  0
5051  1
5052  1
5053  1
5054  0
5055  2
5056  0
5057  2
5058  1
5059  1
5060  0
5061  1
5062  1
5063  1
5064  0
5065  3
5066  2
5067  0
5068  3
5069  2
5070  0
5071  4
5072  1
5073  1
5074  1
5075  0
5076  2
5077  0
5078  0
5079  0
5080  0
5081  3
5082  1
5083  2
5084  2
5085  3
5086  0
5087  1
5088  1
5089  3
5090  1
5091  1
5092  2
5093  3
5094  1
5095  1
5096  1
5097  1
5098  1
5099  2
5100  3
5101  2
5102  0
5103  2
5104  1
5105  2
5106  2
5107  0
5108  2
5109  3
5110  2
5111  3
5112  0
5113  1
5114  1
5115  0
5116  1
5117  0
5118  3
5119  1
5120  1
5121  0
5122  0
5123  2
5124  1
5125  1
5126  4
5127  1
5128  0
5129  4
5130  0
5131  0
5132  0
5133  0
5134  0
5135  3
5136  4
5137  0
5138  0
5139  1
5140  4
5141  2
5142  0
5143  0
5144  3
5145  3
5146  0
5147  2
5148  1
5149  1
5150  0
5151  1
5152  2
5153  5
5154  0
5155  4
5156  2
5157  1
5158  2
5159  1
5160  2
5161  0
5162  2
5163  1
5164  2
5165  1
5166  1
5167  3
5168  3
5169  3
5170  2
5171  1
5172  2
5173  1
5174  1
5175  3
5176  0
5177  2
5178  2
5179  2
5180  1
5181  4
5182  3
5183  1
5184  1
5185  1
5186  3
5187  0
5188  0
5189  2
5190  2
5191  0
5192  2
5193  1
5194  0
5195  2
5196  0
5197  0
5198  0
5199  1
5200  2
5201  2
5202  0
5203  3
5204  1
5205  2
5206  2
5207  0
5208  1
5209  2
5210  0
5211  3
5212  2
5213  5
5214  0
5215  1
5216  1
5217  3
5218  2
5219  2
5220  0
5221  0
5222  3
5223  2
5224  0
5225  2
5226  3
5227  2
5228  1
5229  1
5230  4
5231  2
5232  1
5233  2
5234  1
5235  0
5236  2
5237  0
5238  2
5239  0
5240  2
5241  1
5242  1
5243  4
5244  1
5245  1
5246  1
5247  2
5248  1
5249  2
5250  0
5251  2
5252  0
5253  1
5254  2
5255  0
5256  0
5257  0
5258  1
5259  0
5260  1
5261  2
5262  3
5263  0
5264  1
5265  2
5266  0
5267  0
5268  4
5269  3
5270  5
5271  2
5272  1
5273  1
5274  1
5275  0
5276  1
5277  1
5278  1
5279  3
5280  1
5281  0
5282  1
5283  2
5284  2
5285  1
5286  1
5287  1
5288  0
5289  0
5290  3
5291  1
5292  0
5293  1
5294  1
5295  0
5296  5
5297  1
5298  0
5299  1
5300  2
5301  0
5302  0
5303  0
5304  2
5305  1
5306  0
5307  0
5308  1
5309  1
5310  1
5311  1
5312  2
5313  0
5314  0
5315  1
5316  0
5317  0
5318  2
5319  1
5320  2
5321  1
5322  1
5323  4
5324  0
5325  1
5326  1
5327  0
5328  1
5329  2
5330  4
5331  1
5332  0
5333  1
5334  1
5335  1
5336  3
5337  3
5338  2
5339  2
5340  3
5341  1
5342  3
5343  0
5344  4
5345  1
5346  0
5347  3
5348  1
5349  1
5350  2
5351  4
5352  1
5353  1
5354  0
5355  0
5356  1
5357  2
5358  0
5359  1
5360  2
5361  3
5362  1
5363  3
5364  5
5365  1
5366  4
5367  3
5368  2
5369  0
5370  2
5371  3
5372  6
5373  3
5374  1
5375  2
5376  1
5377  4
5378  4
5379  2
5380  3
5381  1
5382  5
5383  3
5384  1
5385  4
5386  4
5387  3
5388  1
5389  1
5390  3
5391  2
5392  7
5393  3
5394  0
5395  4
5396  3
5397  3
5398  1
5399  1
5400  4
5401  3
5402  1
5403  5
5404  1
5405  1
5406  4
5407  1
5408  6
5409  7
5410  5
5411  7
5412  3
5413  7
5414  3
5415  7
5416  4
5417  2
5418  5
5419  5
5420  7
5421  7
5422  6
5423  11
5424  18
5425  12
5426  13
5427  9
5428  10
5429  10
5430  11
5431  12
5432  13
5433  12
5434  20
5435  20
5436  14
5437  10
5438  15
5439  23
5440  17
5441  19
5442  22
5443  23
5444  22
5445  14
5446  20
5447  22
5448  25
5449  20
5450  14
5451  21
5452  21
5453  23
5454  18
5455  20
5456  33
5457  23
5458  24
5459  22
5460  15
5461  22
5462  25
5463  17
5464  25
5465  22
5466  21
5467  19
5468  15
5469  16
5470  11
5471  10
5472  15
5473  10
5474  12
5475  10
5476  9
5477  5
5478  8
5479  7
5480  1
5481  3
5482  7
5483  11
5484  7
5485  7
5486  7
5487  4
5488  9
5489  2
5490  1
5491  5
5492  7
5493  3
5494  3
5495  4
5496  2
5497  1
5498  0
5499  4
5500  2
5501  0
5502  3
5503  3
5504  0
5505  3
5506  1
5507  3
5508  1
5509  2
5510  0
5511  3
5512  2
5513  4
5514  2
5515  4
5516  2
5517  2
5518  0
5519  0
5520  4
5521  2
5522  2
5523  1
5524  2
5525  2
5526  2
5527  1
5528  2
5529  2
5530  1
5531  1
5532  2
5533  2
5534  0
5535  4
5536  2
5537  0
5538  2
5539  0
5540  0
5541  3
5542  0
5543  0
5544  4
5545  0
5546  1
5547  1
5548  2
5549  2
5550  0
5551  1
5552  2
5553  3
5554  2
5555  2
5556  1
5557  1
5558  2
5559  2
5560  4
5561  5
5562  2
5563  3
5564  4
5565  2
5566  6
5567  2
5568  4
5569  5
5570  5
5571  1
5572  6
5573  2
5574  5
5575  4
5576  7
5577  2
5578  1
5579  8
5580  3
5581  5
5582  4
5583  9
5584  10
5585  10
5586  9
5587  9
5588  14
5589  11
5590  10
5591  12
5592  10
5593  9
5594  11
5595  14
5596  21
5597  19
5598  27
5599  15
5600  32
5601  37
5602  28
5603  27
5604  40
5605  25
5606  36
5607  41
5608  50
5609  43
5610  51
5611  57
5612  57
5613  58
5614  68
5615  66
5616  72
5617  66
5618  73
5619  85
5620  78
5621  79
5622  85
5623  78
5624  92
5625  101
5626  92
5627  78
5628  79
5629  95
5630  97
5631  99
5632  71
5633  92
5634  93
5635  75
5636  78
5637  89
5638  64
5639  58
5640  71
5641  64
5642  65
5643  66
5644  68
5645  58
5646  42
5647  45
5648  42
5649  48
5650  35
5651  32
5652  33
5653  28
5654  16
5655  21
5656  21
5657  14
5658  16
5659  19
5660  23
5661  16
5662  10
5663  7
5664  8
5665  8
5666  15
5667  6
5668  8
5669  8
5670  6
5671  4
5672  1
5673  4
5674  5
5675  3
5676  2
5677  3
5678  3
5679  1
5680  1
5681  2
5682  3
5683  2
5684  2
5685  2
5686  2
5687  1
5688  3
5689  0
5690  2
5691  4
5692  0
5693  1
5694  2
5695  0
5696  0
5697  2
5698  0
5699  4
5700  0
5701  1
5702  0
5703  0
5704  1
5705  0
5706  1
5707  0
5708  0
5709  1
5710  2
5711  3
5712  2
5713  4
5714  1
5715  1
5716  2
5717  1
5718  1
5719  1
5720  3
5721  2
5722  1
5723  3
5724  1
5725  0
5726  0
5727  0
5728  1
5729  1
5730  1
5731  0
5732  0
5733  0
5734  2
5735  2
5736  2
5737  1
5738  1
5739  0
5740  0
5741  0
5742  1
5743  1
5744  3
5745  2
5746  2
5747  1
5748  0
5749  2
5750  1
5751  0
5752  2
5753  0
5754  0
5755  1
5756  0
5757  1
5758  0
5759  1
5760  2
5761  3
5762  1
5763  1
5764  2
5765  2
5766  0
5767  2
5768  0
5769  0
5770  0
5771  2
5772  0
5773  0
5774  0
5775  0
5776  1
5777  1
5778  1
5779  0
5780  2
5781  0
5782  0
5783  1
5784  2
5785  0
5786  0
5787  1
5788  0
5789  0
5790  0
5791  1
5792  0
5793  0
5794  1
5795  0
5796  0
5797  0
5798  1
5799  0
5800  1
5801  1
5802  0
5803  0
5804  2
5805  0
5806  0
5807  0
5808  0
5809  0
5810  1
5811  0
5812  1
5813  1
5814  1
5815  0
5816  0
5817  4
5818  1
5819  0
5820  1
5821  0
5822  1
5823  0
5824  2
5825  0
5826  0
5827  0
5828  0
5829  2
5830  0
5831  2
5832  1
5833  0
5834  3
5835  1
5836  0
5837  2
5838  1
5839  1
5840  1
5841  1
5842  2
5843  1
5844  0
5845  2
5846  2
5847  1
5848  1
5849  3
5850  0
5851  2
5852  1
5853  4
5854  1
5855  3
5856  1
5857  2
5858  1
5859  0
5860  4
5861  1
5862  3
5863  0
5864  1
5865  2
5866  0
5867  2
5868  0
5869  3
5870  3
5871  0
5872  5
5873  2
5874  2
5875  1
5876  1
5877  2
5878  1
5879  0
5880  2
5881  1
5882  0
5883  3
5884  4
5885  0
5886  1
5887  2
5888  1
5889  0
5890  1
5891  0
5892  3
5893  1
5894  1
5895  0
5896  1
5897  2
5898  0
5899  0
5900  1
5901  1
5902  0
5903  0
5904  1
5905  0
5906  2
5907  0
5908  2
5909  3
5910  1
5911  0
5912  2
5913  0
5914  0
5915  0
5916  2
5917  1
5918  0
5919  1
5920  0
5921  1
5922  1
5923  0
5924  2
5925  0
5926  2
5927  1
5928  1
5929  0
5930  2
5931  0
5932  0
5933  1
5934  4
5935  3
5936  2
5937  3
5938  3
5939  0
5940  2
5941  2
5942  1
5943  2
5944  0
5945  0
5946  2
5947  0
5948  0
5949  1
5950  1
5951  2
5952  0
5953  0
5954  1
5955  1
5956  2
5957  1
5958  0
5959  2
5960  1
5961  1
5962  1
5963  2
5964  2
5965  0
5966  1
5967  1
5968  1
5969  3
5970  0
5971  1
5972  1
5973  4
5974  1
5975  1
5976  1
5977  0
5978  3
5979  0
5980  0
5981  0
5982  0
5983  1
5984  3
5985  1
5986  2
5987  1
5988  3
5989  1
5990  2
5991  1
5992  0
5993  0
5994  1
5995  3
5996  1
5997  2
5998  1
5999  0
6000  3
6001  1
6002  1
6003  1
6004  1
6005  4
6006  1
6007  0
6008  1
6009  2
6010  1
6011  2
6012  1
6013  3
6014  1
6015  2
6016  0
6017  2
6018  1
6019  3
6020  2
6021  1
6022  1
6023  3
6024  1
6025  1
6026  2
6027  1
6028  3
6029  0
6030  2
6031  1
6032  0
6033  2
6034  1
6035  2
6036  1
6037  1
6038  1
6039  2
6040  1
6041  1
6042  1
6043  2
6044  1
6045  3
6046  4
6047  5
6048  2
6049  3
6050  2
6051  7
6052  6
6053  4
6054  8
6055  8
6056  4
6057  4
6058  4
6059  3
6060  5
6061  5
6062  6
6063  6
6064  8
6065  8
6066  2
6067  8
6068  6
6069  10
6070  13
6071  8
6072  14
6073  14
6074  10
6075  12
6076  15
6077  9
6078  11
6079  20
6080  20
6081  16
6082  21
6083  16
6084  31
6085  36
6086  28
6087  22
6088  34
6089  37
6090  39
6091  36
6092  34
6093  44
6094  53
6095  39
6096  72
6097  62
6098  68
6099  68
6100  62
6101  50
6102  66
6103  86
6104  79
6105  77
6106  84
6107  95
6108  97
6109  88
6110  81
6111  87
6112  94
6113  91
6114  82
6115  79
6116  86
6117  88
6118  109
6119  87
6120  83
6121  86
6122  58
6123  74
6124  66
6125  74
6126  68
6127  69
6128  68
6129  49
6130  53
6131  50
6132  42
6133  49
6134  38
6135  42
6136  39
6137  40
6138  36
6139  31
6140  15
6141  29
6142  28
6143  21
6144  23
6145  15
6146  15
6147  14
6148  19
6149  15
6150  7
6151  6
6152  14
6153  6
6154  9
6155  6
6156  6
6157  5
6158  3
6159  6
6160  2
6161  4
6162  3
6163  1
6164  1
6165  2
6166  1
6167  0
6168  1
6169  2
6170  0
6171  1
6172  1
6173  1
6174  3
6175  3
6176  2
6177  0
6178  2
6179  2
6180  0
6181  0
6182  0
6183  3
6184  0
6185  2
6186  1
6187  1
6188  2
6189  0
6190  1
6191  1
6192  0
6193  0
6194  0
6195  0
6196  0
6197  0
6198  1
6199  0
6200  2
6201  0
6202  1
6203  0
6204  1
6205  1
6206  1
6207  1
6208  1
6209  0
6210  2
6211  2
6212  0
6213  0
6214  0
6215  0
6216  0
6217  1
6218  0
6219  0
6220  0
6221  0
6222  0
6223  0
6224  0
6225  0
6226  0
6227  2
6228  0
6229  0
6230  0
6231  1
6232  1
6233  0
6234  0
6235  0
6236  0
6237  0
6238  1
6239  0
6240  0
6241  0
6242  1
6243  0
6244  1
6245  0
6246  0
6247  0
6248  0
6249  0
6250  0
6251  1
6252  1
6253  0
6254  1
6255  0
6256  0
6257  0
6258  0
6259  0
6260  1
6261  0
6262  0
6263  0
6264  1
6265  0
6266  0
6267  1
6268  0
6269  0
6270  1
6271  0
6272  1
6273  2
6274  0
6275  0
6276  0
6277  0
6278  0
6279  0
6280  0
6281  0
6282  1
6283  0
6284  2
6285  0
6286  1
6287  0
6288  0
6289  0
6290  0
6291  0
6292  1
6293  2
6294  0
6295  0
6296  0
6297  0
6298  1
6299  0
6300  0
6301  1
6302  0
6303  0
6304  0
6305  0
6306  0
6307  0
6308  0
6309  0
6310  0
6311  0
6312  1
6313  0
6314  0
6315  0
6316  0
6317  1
6318  0
6319  0
6320  0
6321  2
6322  1
6323  2
6324  0
6325  0
6326  0
6327  0
6328  0
6329  0
6330  0
6331  0
6332  0
6333  0
6334  0
6335  1
6336  1
6337  0
6338  1
6339  0
6340  0
6341  1
6342  0
6343  0
6344  1
6345  0
6346  1
6347  0
6348  0
6349  0
6350  1
6351  1
6352  1
6353  0
6354  0
6355  0
6356  0
6357  1
6358  0
6359  1
6360  2
6361  0
6362  0
6363  0
6364  0
6365  0
6366  0
6367  2
6368  1
6369  0
6370  0
6371  0
6372  0
6373  2
6374  1
6375  1
6376  0
6377  1
6378  0
6379  2
6380  0
6381  0
6382  0
6383  0
6384  0
6385  1
6386  1
6387  0
6388  0
6389  1
6390  1
6391  1
6392  1
6393  0
6394  0
6395  0
6396  1
6397  1
6398  1
6399  0
6400  1
6401  1
6402  0
6403  0
6404  0
6405  0
6406  1
6407  0
6408  1
6409  0
6410  0
6411  0
6412  1
6413  0
6414  1
6415  0
6416  0
6417  0
6418  0
6419  0
6420  0
6421  0
6422  0
6423  1
6424  0
6425  0
6426  0
6427  1
6428  0
6429  1
6430  2
6431  0
6432  0
6433  1
6434  1
6435  0
6436  0
6437  1
6438  0
6439  0
6440  0
6441  0
6442  0
6443  0
6444  0
6445  1
6446  0
6447  0
6448  0
6449  1
6450  0
6451  0
6452  0
6453  1
6454  0
6455  0
6456  0
6457  0
6458  1
6459  0
6460  0
6461  0
6462  0
6463  2
6464  0
6465  0
6466  0
6467  0
6468  1
6469  0
6470  0
6471  0
6472  0
6473  1
6474  1
6475  0
6476  0
6477  1
6478  0
6479  0
6480  0
6481  0
6482  0
6483  1
6484  0
6485  0
6486  0
6487  0
6488  0
6489  0
6490  0
6491  1
6492  0
6493  0
6494  0
6495  0
6496  0
6497  0
6498  0
6499  0
6500  0
6501  0
6502  0
6503  0
6504  0
6505  1
6506  0
6507  1
6508  0
6509  0
6510  0
6511  0
6512  0
6513  0
6514  0
6515  0
6516  0
6517  1
6518  0
6519  1
6520  1
6521  0
6522  0
6523  0
6524  0
6525  1
6526  0
6527  0
6528  0
6529  0
6530  0
6531  0
6532  1
6533  1
6534  0
6535  0
6536  0
6537  0
6538  0
6539  1
6540  0
6541  1
6542  0
6543  0
6544  0
6545  0
6546  2
6547  0
6548  0
6549  1
6550  0
6551  1
6552  0
6553  1
6554  0
6555  0
6556  0
6557  0
6558  0
6559  0
6560  0
6561  0
6562  0
6563  0
6564  0
6565  0
6566  0
6567  1
6568  2
6569  0
6570  0
6571  1
6572  1
6573  0
6574  0
6575  1
6576  0
6577  1
6578  0
6579  0
6580  0
6581  0
6582  0
6583  0
6584  2
6585  0
6586  3
6587  0
6588  0
6589  0
6590  0
6591  0
6592  0
6593  0
6594  0
6595  0
6596  1
6597  0
6598  0
6599  0
6600  1
6601  1
6602  0
6603  0
6604  0
6605  0
6606  0
6607  0
6608  0
6609  0
6610  1
6611  1
6612  1
6613  1
6614  0
6615  0
6616  0
6617  1
6618  0
6619  1
6620  0
6621  0
6622  0
6623  1
6624  0
6625  0
6626  1
6627  0
6628  0
6629  0
6630  0
6631  0
6632  0
6633  0
6634  0
6635  0
6636  0
6637  0
6638  1
6639  1
6640  0
6641  0
6642  1
6643  0
6644  0
6645  0
6646  0
6647  0
6648  0
6649  1
6650  1
6651  0
6652  0
6653  1
6654  0
6655  0
6656  0
6657  1
6658  0
6659  0
6660  0
6661  1
6662  0
6663  0
6664  0
6665  0
6666  0
6667  0
6668  1
6669  1
6670  1
6671  0
6672  1
6673  0
6674  1
6675  0
6676  1
6677  0
6678  0
6679  0
6680  0
6681  0
6682  1
6683  0
6684  0
6685  0
6686  0
6687  0
6688  0
6689  1
6690  0
6691  1
6692  0
6693  0
6694  1
6695  0
6696  0
6697  0
6698  0
6699  0
6700  1
6701  0
6702  0
6703  0
6704  0
6705  0
6706  0
6707  0
6708  0
6709  0
6710  0
6711  0
6712  1
6713  0
6714  0
6715  0
6716  0
6717  0
6718  1
6719  0
6720  0
6721  0
6722  2
6723  0
6724  0
6725  0
6726  0
6727  0
6728  0
6729  0
6730  0
6731  1
6732  0
6733  0
6734  0
6735  0
6736  1
6737  0
6738  0
6739  0
6740  0
6741  0
6742  1
6743  0
6744  0
6745  0
6746  1
6747  0
6748  0
6749  0
6750  1
6751  0
6752  0
6753  0
6754  0
6755  0
6756  0
6757  1
6758  1
6759  1
6760  0
6761  1
6762  2
6763  0
6764  0
6765  0
6766  1
6767  1
6768  0
6769  2
6770  0
6771  0
6772  0
6773  0
6774  1
6775  0
6776  0
6777  0
6778  1
6779  0
6780  0
6781  0
6782  0
6783  1
6784  0
6785  0
6786  0
6787  1
6788  1
6789  0
6790  0
6791  0
6792  0
6793  3
6794  0
6795  1
6796  1
6797  0
6798  0
6799  0
6800  0
6801  0
6802  0
6803  0
6804  0
6805  0
6806  0
6807  0
6808  1
6809  0
6810  0
6811  1
6812  0
6813  1
6814  0
6815  0
6816  0
6817  0
6818  0
6819  0
6820  0
6821  1
6822  0
6823  1
6824  0
6825  0
6826  1
6827  0
6828  0
6829  0
6830  0
6831  0
6832  0
6833  0
6834  1
6835  1
6836  0
6837  0
6838  0
6839  0
6840  0
6841  3
6842  0
6843  0
6844  0
6845  0
6846  1
6847  0
6848  0
6849  1
6850  0
6851  0
6852  2
6853  0
6854  1
6855  1
6856  1
6857  1
6858  0
6859  0
6860  0
6861  0
6862  0
6863  0
6864  1
6865  0
6866  0
6867  0
6868  2
6869  0
6870  0
6871  1
6872  0
6873  0
6874  0
6875  1
6876  0
6877  0
6878  0
6879  0
6880  0
6881  0
6882  0
6883  0
6884  0
6885  0
6886  0
6887  0
6888  0
6889  0
6890  0
6891  1
6892  0
6893  0
6894  0
6895  0
6896  0
6897  1
6898  1
6899  0
6900  0
6901  0
6902  0
6903  0
6904  1
6905  0
6906  0
6907  0
6908  0
6909  0
6910  1
6911  0
6912  0
6913  1
6914  0
6915  2
6916  0
6917  1
6918  1
6919  0
6920  1
6921  0
6922  0
6923  0
6924  0
6925  0
6926  0
6927  0
6928  0
6929  0
6930  1
6931  2
6932  0
6933  2
6934  0
6935  1
6936  0
6937  0
6938  0
6939  0
6940  0
6941  0
6942  2
6943  0
6944  0
6945  1
6946  0
6947  0
6948  0
6949  1
6950  0
6951  0
6952  0
6953  1
6954  0
6955  1
6956  1
6957  0
6958  2
6959  0
6960  1
6961  0
6962  0
6963  1
6964  0
6965  0
6966  1
6967  0
6968  1
6969  0
6970  0
6971  0
6972  0
6973  1
6974  1
6975  0
6976  0
6977  0
6978  1
6979  0
6980  0
6981  0
6982  0
6983  0
6984  0
6985  0
6986  0
6987  0
6988  1
6989  0
6990  1
6991  0
6992  1
6993  0
6994  0
6995  0
6996  0
6997  1
6998  0
6999  0
7000  0
7001  1
7002  0
7003  1
7004  0
7005  0
7006  0
7007  2
7008  0
7009  0
7010  0
7011  0
7012  0
7013  0
7014  0
7015  0
7016  0
7017  0
7018  0
7019  0
7020  0
7021  0
7022  0
7023  1
7024  0
7025  0
7026  0
7027  1
7028  0
7029  0
7030  0
7031  0
7032  0
7033  1
7034  0
7035  1
7036  0
7037  0
7038  0
7039  0
7040  0
7041  0
7042  0
7043  0
7044  0
7045  2
7046  0
7047  1
7048  0
7049  1
7050  0
7051  0
7052  0
7053  0
7054  0
7055  0
7056  1
7057  1
7058  0
7059  1
7060  0
7061  1
7062  0
7063  0
7064  1
7065  0
7066  1
7067  0
7068  0
7069  0
7070  0
7071  1
7072  0
7073  0
7074  0
7075  0
7076  0
7077  0
7078  0
7079  0
7080  1
7081  0
7082  0
7083  0
7084  1
7085  0
7086  0
7087  0
7088  0
7089  0
7090  0
7091  1
7092  0
7093  0
7094  1
7095  0
7096  0
7097  0
7098  0
7099  0
7100  0
7101  1
7102  0
7103  1
7104  0
7105  1
7106  0
7107  1
7108  0
7109  0
7110  0
7111  0
7112  0
7113  0
7114  0
7115  0
7116  0
7117  0
7118  1
7119  2
7120  0
7121  0
7122  0
7123  2
7124  0
7125  0
7126  0
7127  0
7128  0
7129  0
7130  1
7131  0
7132  2
7133  0
7134  0
7135  0
7136  0
7137  0
7138  0
7139  0
7140  0
7141  0
7142  1
7143  0
7144  0
7145  0
7146  0
7147  0
7148  1
7149  0
7150  0
7151  0
7152  1
7153  0
7154  0
7155  1
7156  0
7157  0
7158  1
7159  1
7160  0
7161  0
7162  0
7163  1
7164  0
7165  0
7166  0
7167  2
7168  0
7169  2
7170  0
7171  1
7172  0
7173  2
7174  0
7175  0
7176  0
7177  0
7178  0
7179  0
7180  0
7181  0
7182  0
7183  0
7184  0
7185  0
7186  0
7187  0
7188  0
7189  1
7190  1
7191  0
7192  0
7193  3
7194  1
7195  0
7196  0
7197  0
7198  0
7199  1
7200  0
7201  1
7202  1
7203  0
7204  0
7205  0
7206  0
7207  0
7208  0
7209  2
7210  0
7211  0
7212  0
7213  1
7214  0
7215  0
7216  0
7217  0
7218  1
7219  1
7220  1
7221  0
7222  0
7223  1
7224  0
7225  0
7226  0
7227  0
7228  0
7229  1
7230  0
7231  0
7232  1
7233  1
7234  0
7235  0
7236  0
7237  1
7238  0
7239  0
7240  3
7241  0
7242  0
7243  0
7244  0
7245  0
7246  0
7247  0
7248  2
7249  0
7250  2
7251  0
7252  1
7253  0
7254  0
7255  0
7256  2
7257  1
7258  2
7259  1
7260  1
7261  0
7262  1
7263  0
7264  0
7265  0
7266  1
7267  0
7268  0
7269  0
7270  0
7271  1
7272  2
7273  2
7274  1
7275  0
7276  1
7277  0
7278  0
7279  0
7280  0
7281  1
7282  0
7283  1
7284  1
7285  1
7286  0
7287  0
7288  0
7289  0
7290  0
7291  0
7292  2
7293  0
7294  0
7295  0
7296  1
7297  1
7298  0
7299  0
7300  0
7301  0
7302  0
7303  0
7304  0
7305  0
7306  0
7307  1
7308  0
7309  0
7310  0
7311  2
7312  0
7313  0
7314  1
7315  0
7316  0
7317  0
7318  1
7319  1
7320  0
7321  0
7322  0
7323  0
7324  0
7325  1
7326  2
7327  1
7328  0
7329  0
7330  1
7331  0
7332  1
7333  1
7334  0
7335  0
7336  0
7337  1
7338  2
7339  0
7340  1
7341  1
7342  2
7343  0
7344  0
7345  0
7346  0
7347  0
7348  0
7349  1
7350  1
7351  0
7352  0
7353  0
7354  2
7355  0
7356  2
7357  0
7358  0
7359  2
7360  1
7361  0
7362  0
7363  1
7364  1
7365  1
7366  0
7367  1
7368  1
7369  0
7370  0
7371  0
7372  2
7373  1
7374  1
7375  0
7376  1
7377  0
7378  0
7379  1
7380  1
7381  1
7382  1
7383  0
7384  1
7385  1
7386  0
7387  0
7388  2
7389  1
7390  0
7391  0
7392  0
7393  1
7394  0
7395  1
7396  2
7397  0
7398  2
7399  1
7400  2
7401  0
7402  0
7403  1
7404  0
7405  1
7406  1
7407  1
7408  1
7409  2
7410  1
7411  0
7412  1
7413  1
7414  1
7415  0
7416  0
7417  0
7418  1
7419  0
7420  0
7421  0
7422  0
7423  0
7424  1
7425  2
7426  0
7427  0
7428  0
7429  0
7430  2
7431  0
7432  0
7433  1
7434  0
7435  2
7436  0
7437  1
7438  1
7439  0
7440  0
7441  1
7442  0
7443  0
7444  0
7445  0
7446  0
7447  1
7448  0
7449  0
7450  0
7451  0
7452  0
7453  2
7454  1
7455  1
7456  0
7457  0
7458  1
7459  0
7460  0
7461  0
7462  0
7463  0
7464  1
7465  0
7466  0
7467  1
7468  0
7469  2
7470  1
7471  0
7472  2
7473  0
7474  1
7475  0
7476  0
7477  0
7478  0
7479  0
7480  0
7481  2
7482  2
7483  2
7484  2
7485  1
7486  0
7487  0
7488  0
7489  3
7490  0
7491  0
7492  0
7493  1
7494  2
7495  2
7496  2
7497  0
7498  1
7499  1
7500  0
7501  0
7502  0
7503  0
7504  0
7505  0
7506  1
7507  0
7508  0
7509  0
7510  0
7511  0
7512  1
7513  0
7514  0
7515  0
7516  0
7517  1
7518  2
7519  1
7520  0
7521  1
7522  2
7523  0
7524  0
7525  0
7526  1
7527  2
7528  1
7529  0
7530  1
7531  1
7532  0
7533  1
7534  0
7535  0
7536  2
7537  0
7538  0
7539  1
7540  1
7541  1
7542  1
7543  0
7544  1
7545  1
7546  1
7547  1
7548  0
7549  1
7550  2
7551  0
7552  3
7553  1
7554  3
7555  2
7556  2
7557  2
7558  0
7559  2
7560  1
7561  0
7562  0
7563  1
7564  2
7565  0
7566  1
7567  1
7568  0
7569  1
7570  0
7571  0
7572  2
7573  3
7574  1
7575  2
7576  2
7577  2
7578  2
7579  0
7580  0
7581  1
7582  1
7583  2
7584  2
7585  1
7586  0
7587  1
7588  0
7589  3
7590  0
7591  1
7592  0
7593  0
7594  1
7595  1
7596  0
7597  1
7598  1
7599  2
7600  2
7601  2
7602  0
7603  0
7604  1
7605  1
7606  0
7607  0
7608  1
7609  0
7610  2
7611  0
7612  4
7613  2
7614  1
7615  2
7616  0
7617  3
7618  1
7619  1
7620  1
7621  3
7622  1
7623  1
7624  1
7625  4
7626  0
7627  3
7628  3
7629  1
7630  4
7631  4
7632  5
7633  3
7634  1
7635  2
7636  2
7637  3
7638  2
7639  0
7640  2
7641  1
7642  4
7643  2
7644  7
7645  6
7646  6
7647  3
7648  2
7649  9
7650  5
7651  4
7652  5
7653  5
7654  5
7655  3
7656  5
7657  4
7658  8
7659  2
7660  6
7661  7
7662  5
7663  15
7664  12
7665  12
7666  8
7667  13
7668  14
7669  15
7670  15
7671  13
7672  22
7673  27
7674  13
7675  20
7676  22
7677  24
7678  27
7679  32
7680  15
7681  38
7682  36
7683  48
7684  37
7685  41
7686  39
7687  51
7688  48
7689  54
7690  54
7691  63
7692  61
7693  60
7694  75
7695  68
7696  80
7697  72
7698  73
7699  71
7700  74
7701  73
7702  76
7703  79
7704  72
7705  91
7706  95
7707  73
7708  77
7709  72
7710  61
7711  69
7712  73
7713  69
7714  88
7715  69
7716  76
7717  55
7718  41
7719  73
7720  47
7721  46
7722  52
7723  39
7724  49
7725  60
7726  37
7727  41
7728  33
7729  35
7730  30
7731  23
7732  26
7733  20
7734  17
7735  9
7736  19
7737  15
7738  11
7739  15
7740  11
7741  13
7742  6
7743  9
7744  7
7745  8
7746  8
7747  6
7748  4
7749  4
7750  4
7751  2
7752  5
7753  1
7754  4
7755  2
7756  3
7757  0
7758  0
7759  2
7760  0
7761  2
7762  2
7763  2
7764  2
7765  3
7766  0
7767  0
7768  0
7769  0
7770  0
7771  0
7772  2
7773  0
7774  0
7775  0
7776  0
7777  1
7778  0
7779  0
7780  0
7781  0
7782  2
7783  1
7784  0
7785  0
7786  0
7787  0
7788  0
7789  0
7790  0
7791  0
7792  0
7793  0
7794  0
7795  0
7796  1
7797  0
7798  0
7799  1
7800  0
7801  2
7802  0
7803  1
7804  0
7805  1
7806  0
7807  0
7808  0
7809  0
7810  0
7811  0
7812  1
7813  0
7814  0
7815  0
7816  0
7817  0
7818  0
7819  0
7820  0
7821  0
7822  1
7823  0
7824  0
7825  0
7826  0
7827  0
7828  1
7829  0
7830  1
7831  1
7832  0
7833  0
7834  0
7835  0
7836  0
7837  0
7838  2
7839  0
7840  0
7841  0
7842  1
7843  0
7844  0
7845  0
7846  0
7847  0
7848  0
7849  0
7850  0
7851  0
7852  1
7853  0
7854  1
7855  0
7856  0
7857  0
7858  0
7859  0
7860  0
7861  0
7862  0
7863  0
7864  0
7865  0
7866  0
7867  0
7868  1
7869  0
7870  0
7871  0
7872  0
7873  0
7874  0
7875  0
7876  0
7877  0
7878  0
7879  0
7880  0
7881  0
7882  0
7883  0
7884  0
7885  0
7886  0
7887  0
7888  0
7889  1
7890  0
7891  0
7892  0
7893  0
7894  0
7895  1
7896  0
7897  0
7898  0
7899  0
7900  0
7901  0
7902  0
7903  0
7904  0
7905  0
7906  0
7907  0
7908  0
7909  0
7910  0
7911  0
7912  0
7913  0
7914  0
7915  1
7916  0
7917  0
7918  0
7919  0
7920  0
7921  0
7922  0
7923  0
7924  0
7925  0
7926  0
7927  0
7928  0
7929  0
7930  0
7931  0
7932  0
7933  0
7934  0
7935  0
7936  0
7937  0
7938  0
7939  0
7940  0
7941  0
7942  0
7943  1
7944  0
7945  0
7946  0
7947  0
7948  0
7949  0
7950  0
7951  0
7952  0
7953  0
7954  0
7955  0
7956  0
7957  0
7958  0
7959  0
7960  1
7961  0
7962  1
7963  0
7964  1
7965  0
7966  0
7967  0
7968  0
7969  0
7970  0
7971  0
7972  0
7973  0
7974  0
7975  2
7976  0
7977  0
7978  0
7979  0
7980  0
7981  1
7982  0
7983  0
7984  1
7985  0
7986  0
7987  0
7988  0
7989  0
7990  0
7991  0
7992  0
7993  0
7994  0
7995  0
7996  0
7997  0
7998  0
7999  0
8000  0
8001  0
8002  0
8003  0
8004  0
8005  0
8006  0
8007  0
8008  0
8009  0
8010  0
8011  0
8012  0
8013  0
8014  0
8015  0
8016  0
8017  0
8018  0
8019  0
8020  1
8021  0
8022  0
8023  0
8024  0
8025  0
8026  0
8027  0
8028  0
8029  0
8030  0
8031  0
8032  0
8033  0
8034  0
8035  0
8036  0
8037  0
8038  1
8039  0
8040  0
8041  0
8042  0
8043  0
8044  0
8045  0
8046  0
8047  0
8048  0
8049  0
8050  0
8051  0
8052  0
8053  0
8054  0
8055  0
8056  0
8057  0
8058  0
8059  0
8060  1
8061  0
8062  0
8063  0
8064  0
8065  0
8066  0
8067  0
8068  0
8069  0
8070  0
8071  0
8072  0
8073  0
8074  0
8075  0
8076  0
8077  0
8078  0
8079  0
8080  0
8081  0
8082  0
8083  0
8084  0
8085  0
8086  0
8087  0
8088  0
8089  0
8090  0
8091  0
8092  0
8093  0
8094  0
8095  0
8096  0
8097  0
8098  0
8099  1
8100  0
8101  0
8102  0
8103  0
8104  0
8105  0
8106  0
8107  0
8108  0
8109  2
8110  0
8111  0
8112  0
8113  0
8114  0
8115  0
8116  0
8117  0
8118  0
8119  0
8120  0
8121  0
8122  0
8123  0
8124  0
8125  0
8126  0
8127  0
8128  0
8129  1
8130  0
8131  0
8132  0
8133  0
8134  1
8135  0
8136  0
8137  0
8138  0
8139  0
8140  0
8141  0
8142  1
8143  0
8144  0
8145  0
8146  0
8147  0
8148  0
8149  0
8150  0
8151  0
8152  0
8153  0
8154  1
8155  0
8156  0
8157  0
8158  0
8159  0
8160  0
8161  0
8162  0
8163  0
8164  0
8165  0
8166  0
8167  0
8168  0
8169  0
8170  0
8171  0
8172  0
8173  0
8174  0
8175  0
8176  0
8177  0
8178  0
8179  0
8180  0
8181  1
8182  0
8183  0
8184  0
8185  0
8186  0
8187  0
8188  0
8189  0
8190  0
8191  0
