0  720
1  517
2  1134
3  2179
4  4515
5  8860
6  15980
7  22777
8  26180
9  19287
10  11619
11  5645
12  2563
13  1255
14  584
15  288
16  138
17  64
18  34
19  17
20  10
21  9
22  13
23  6
24  9
25  4
26  4
27  6
28  10
29  7
30  5
31  9
32  6
33  6
34  8
35  7
36  6
37  3
38  6
39  2
40  6
41  10
42  5
43  10
44  5
45  8
46  4
47  4
48  9
49  9
50  7
51  23
52  25
53  50
54  103
55  186
56  373
57  564
58  818
59  953
60  1003
61  1071
62  1077
63  1020
64  1106
65  1090
66  1083
67  1131
68  1236
69  1192
70  1133
71  1072
72  1186
73  1229
74  1206
75  1142
76  1204
77  1230
78  1217
79  1146
80  1211
81  1189
82  1215
83  1147
84  1255
85  1194
86  1216
87  1181
88  1280
89  1275
90  1211
91  1174
92  1252
93  1227
94  1292
95  1187
96  1252
97  1244
98  1297
99  1284
100  1238
101  1336
102  1266
103  1304
104  1258
105  1284
106  1261
107  1223
108  1344
109  1250
110  1275
111  1339
112  1305
113  1320
114  1260
115  1249
116  1299
117  1215
118  1247
119  1183
120  1201
121  1270
122  1253
123  1214
124  1191
125  1211
126  1139
127  1080
128  1145
129  1150
130  1114
131  1082
132  1152
133  1070
134  1005
135  1053
136  1034
137  1018
138  984
139  951
140  939
141  976
142  973
143  935
144  890
145  913
146  883
147  875
148  891
149  806
150  853
151  795
152  788
153  817
154  811
155  777
156  798
157  728
158  708
159  684
160  676
161  732
162  704
163  661
164  652
165  700
166  697
167  687
168  705
169  689
170  621
171  657
172  611
173  610
174  627
175  574
176  588
177  634
178  572
179  530
180  597
181  546
182  543
183  550
184  529
185  522
186  542
187  507
188  502
189  503
190  518
191  470
192  500
193  468
194  476
195  443
196  461
197  466
198  432
199  455
200  422
201  386
202  408
203  413
204  376
205  381
206  351
207  342
208  366
209  349
210  339
211  311
212  335
213  343
214  315
215  330
216  299
217  286
218  267
219  290
220  289
221  270
222  265
223  259
224  283
225  276
226  270
227  253
228  275
229  254
230  247
231  234
232  251
233  267
234  234
235  246
236  284
237  260
238  251
239  216
240  255
241  279
242  274
243  319
244  320
245  328
246  315
247  310
248  339
249  355
250  392
251  384
252  409
253  434
254  457
255  428
256  576
257  538
258  571
259  657
260  644
261  681
262  735
263  730
264  755
265  860
266  894
267  948
268  971
269  1009
270  1016
271  1003
272  1159
273  1125
274  1091
275  1146
276  1208
277  1191
278  1254
279  1224
280  1290
281  1191
282  1231
283  1189
284  1230
285  1170
286  1202
287  1185
288  1147
289  1150
290  1158
291  1082
292  1102
293  1079
294  989
295  1003
296  1051
297  955
298  916
299  896
300  810
301  806
302  733
303  751
304  786
305  677
306  623
307  628
308  548
309  585
310  545
311  490
312  522
313  480
314  478
315  444
316  396
317  360
318  342
319  340
320  387
321  322
322  288
323  283
324  300
325  277
326  258
327  225
328  242
329  208
330  240
331  190
332  183
333  209
334  181
335  184
336  181
337  164
338  159
339  131
340  153
341  150
342  140
343  126
344  118
345  120
346  111
347  137
348  113
349  113
350  111
351  99
352  107
353  100
354  108
355  88
356  79
357  106
358  89
359  101
360  88
361  97
362  78
363  84
364  84
365  92
366  88
367  70
368  80
369  104
370  92
371  83
372  94
373  79
374  77
375  77
376  90
377  83
378  87
379  88
380  85
381  78
382  82
383  84
384  73
385  70
386  82
387  89
388  96
389  89
390  94
391  70
392  76
393  86
394  60
395  83
396  76
397  82
398  102
399  72
400  91
401  92
402  84
403  71
404  83
405  65
406  76
407  85
408  81
409  95
410  72
411  75
412  96
413  78
414  83
415  77
416  67
417  91
418  92
419  78
420  78
421  80
422  70
423  72
424  90
425  96
426  76
427  81
428  70
429  81
430  92
431  87
432  92
433  85
434  91
435  86
436  77
437  88
438  95
439  82
440  80
441  84
442  84
443  83
444  83
445  81
446  81
447  83
448  100
449  76
450  79
451  91
452  75
453  95
454  78
455  82
456  76
457  93
458  83
459  90
460  72
461  84
462  96
463  88
464  82
465  100
466  75
467  79
468  102
469  96
470  90
471  89
472  89
473  90
474  87
475  76
476  90
477  99
478  88
479  72
480  77
481  95
482  92
483  78
484  85
485  93
486  74
487  78
488  91
489  86
490  84
491  82
492  86
493  84
494  84
495  78
496  78
497  80
498  94
499  80
500  93
501  85
502  102
503  78
504  77
505  95
506  89
507  81
508  81
509  66
510  84
511  55
512  80
513  81
514  85
515  81
516  90
517  95
518  65
519  82
520  79
521  97
522  80
523  85
524  73
525  90
526  89
527  84
528  72
529  74
530  67
531  77
532  72
533  106
534  90
535  77
536  73
537  88
538  71
539  62
540  93
541  60
542  71
543  74
544  76
545  78
546  84
547  77
548  86
549  66
550  52
551  62
552  72
553  71
554  73
555  59
556  58
557  61
558  58
559  68
560  56
561  66
562  58
563  63
564  59
565  63
566  58
567  67
568  63
569  70
570  50
571  53
572  51
573  50
574  52
575  65
576  55
577  56
578  52
579  47
580  55
581  34
582  48
583  59
584  44
585  50
586  62
587  50
588  55
589  51
590  49
591  58
592  45
593  49
594  54
595  39
596  59
597  54
598  47
599  56
600  56
601  53
602  59
603  54
604  50
605  42
606  62
607  45
608  51
609  62
610  47
611  49
612  62
613  48
614  62
615  64
616  65
617  85
618  65
619  55
620  49
621  66
622  68
623  75
624  75
625  81
626  93
627  92
628  92
629  85
630  75
631  92
632  86
633  92
634  91
635  100
636  102
637  111
638  101
639  101
640  105
641  104
642  108
643  109
644  129
645  123
646  120
647  113
648  114
649  132
650  126
651  117
652  143
653  137
654  132
655  118
656  137
657  129
658  138
659  133
660  155
661  151
662  137
663  140
664  147
665  118
666  129
667  132
668  144
669  128
670  150
671  134
672  156
673  137
674  126
675  136
676  135
677  137
678  112
679  110
680  105
681  123
682  113
683  124
684  125
685  104
686  110
687  93
688  100
689  91
690  115
691  82
692  77
693  103
694  89
695  89
696  86
697  85
698  70
699  94
700  84
701  70
702  84
703  60
704  71
705  69
706  90
707  63
708  66
709  67
710  75
711  50
712  63
713  55
714  62
715  62
716  50
717  64
718  54
719  58
720  42
721  51
722  53
723  46
724  40
725  42
726  51
727  39
728  44
729  32
730  25
731  37
732  35
733  33
734  36
735  30
736  36
737  40
738  33
739  21
740  27
741  28
742  35
743  34
744  26
745  26
746  33
747  31
748  33
749  26
750  15
751  25
752  17
753  19
754  26
755  13
756  21
757  14
758  19
759  12
760  16
761  20
762  15
763  16
764  14
765  12
766  16
767  10
768  11
769  8
770  11
771  15
772  11
773  13
774  20
775  8
776  17
777  7
778  16
779  14
780  11
781  11
782  7
783  7
784  12
785  11
786  10
787  12
788  8
789  5
790  14
791  14
792  11
793  4
794  14
795  7
796  8
797  4
798  4
799  10
800  6
801  7
802  5
803  3
804  12
805  4
806  12
807  7
808  8
809  6
810  4
811  2
812  1
813  7
814  6
815  9
816  27
817  5
818  4
819  1
820  1
821  4
822  4
823  4
824  6
825  6
826  3
827  10
828  6
829  5
830  10
831  13
832  18
833  12
834  34
835  29
836  30
837  51
838  46
839  54
840  67
841  59
842  53
843  177
844  137
845  147
846  30
847  0
848  0
849  0
850  0
851  0
852  0
853  0
854  0
855  0
856  0
857  0
858  0
859  0
860  0
861  0
862  0
863  0
864  0
865  0
866  0
867  0
868  0
869  0
870  0
871  0
872  0
873  0
874  0
875  0
876  0
877  0
878  0
879  0
880  0
881  0
882  0
883  0
884  0
885  0
886  0
887  0
888  0
889  0
890  0
891  0
892  0
893  0
894  0
895  0
896  0
897  0
898  0
899  0
900  0
901  0
902  0
903  0
904  0
905  0
906  0
907  0
908  0
909  0
910  0
911  0
912  0
913  0
914  0
915  0
916  0
917  0
918  0
919  0
920  0
921  0
922  0
923  0
924  0
925  0
926  0
927  0
928  0
929  0
930  0
931  0
932  0
933  0
934  0
935  0
936  0
937  0
938  0
939  0
940  0
941  0
942  0
943  0
944  0
945  0
946  0
947  0
948  0
949  0
950  0
951  0
952  0
953  0
954  0
955  0
956  0
957  0
958  0
959  0
960  0
961  0
962  1
963  0
964  1
965  1
966  1
967  1
968  0
969  1
970  0
971  0
972  0
973  0
974  0
975  0
976  0
977  0
978  0
979  1
980  1
981  1
982  2
983  0
984  0
985  1
986  0
987  0
988  1
989  0
990  0
991  0
992  2
993  0
994  0
995  0
996  0
997  0
998  0
999  0
1000  1
1001  0
1002  1
1003  0
1004  1
1005  0
1006  0
1007  0
1008  2
1009  1
1010  1
1011  0
1012  0
1013  0
1014  0
1015  0
1016  1
1017  0
1018  0
1019  3
1020  10
1021  6
1022  9
1023  32
