0  1679
1  1631
2  2827
3  6580
4  19399
5  44571
6  60507
7  39315
8  16770
9  5790
10  2800
11  1746
12  1223
13  869
14  667
15  495
16  412
17  357
18  293
19  258
20  253
21  227
22  193
23  195
24  168
25  192
26  176
27  171
28  147
29  148
30  145
31  133
32  160
33  130
34  153
35  137
36  134
37  143
38  142
39  146
40  150
41  132
42  130
43  127
44  140
45  130
46  141
47  142
48  154
49  132
50  113
51  117
52  116
53  128
54  104
55  128
56  145
57  140
58  129
59  142
60  136
61  127
62  131
63  127
64  152
65  155
66  145
67  145
68  189
69  252
70  420
71  626
72  792
73  770
74  848
75  875
76  879
77  892
78  830
79  818
80  880
81  885
82  903
83  842
84  844
85  913
86  906
87  849
88  925
89  933
90  904
91  905
92  947
93  955
94  966
95  936
96  1012
97  953
98  958
99  943
100  932
101  929
102  965
103  897
104  988
105  913
106  910
107  861
108  830
109  871
110  823
111  836
112  830
113  814
114  789
115  777
116  742
117  740
118  694
119  667
120  689
121  634
122  672
123  648
124  612
125  619
126  581
127  597
128  561
129  619
130  544
131  549
132  568
133  561
134  544
135  510
136  492
137  532
138  465
139  435
140  485
141  450
142  458
143  423
144  477
145  464
146  444
147  429
148  439
149  436
150  422
151  399
152  407
153  429
154  421
155  414
156  393
157  369
158  379
159  382
160  409
161  375
162  393
163  385
164  357
165  401
166  352
167  368
168  329
169  358
170  310
171  335
172  313
173  344
174  302
175  292
176  299
177  269
178  260
179  247
180  240
181  245
182  238
183  227
184  221
185  217
186  187
187  197
188  189
189  214
190  174
191  173
192  176
193  128
194  171
195  151
196  144
197  136
198  132
199  125
200  128
201  152
202  133
203  126
204  158
205  117
206  147
207  135
208  137
209  126
210  139
211  139
212  142
213  159
214  122
215  142
216  152
217  130
218  133
219  145
220  158
221  146
222  151
223  137
224  166
225  189
226  158
227  186
228  196
229  183
230  188
231  198
232  195
233  230
234  225
235  233
236  281
237  287
238  298
239  303
240  312
241  345
242  397
243  383
244  431
245  480
246  557
247  536
248  555
249  576
250  623
251  710
252  651
253  770
254  770
255  713
256  892
257  833
258  868
259  804
260  879
261  884
262  896
263  869
264  875
265  818
266  845
267  786
268  773
269  775
270  742
271  638
272  641
273  588
274  539
275  499
276  421
277  405
278  369
279  315
280  280
281  270
282  239
283  251
284  206
285  189
286  147
287  138
288  114
289  127
290  67
291  88
292  65
293  82
294  90
295  65
296  68
297  61
298  47
299  56
300  54
301  45
302  50
303  58
304  43
305  58
306  48
307  36
308  71
309  55
310  53
311  53
312  48
313  55
314  48
315  47
316  40
317  44
318  42
319  46
320  54
321  44
322  35
323  52
324  42
325  54
326  43
327  45
328  57
329  49
330  37
331  62
332  38
333  57
334  56
335  47
336  52
337  41
338  39
339  57
340  48
341  48
342  35
343  48
344  54
345  45
346  40
347  41
348  56
349  44
350  41
351  40
352  46
353  49
354  52
355  48
356  51
357  53
358  39
359  46
360  39
361  37
362  40
363  58
364  38
365  43
366  47
367  49
368  51
369  38
370  49
371  51
372  41
373  44
374  42
375  56
376  51
377  40
378  52
379  51
380  55
381  45
382  47
383  46
384  49
385  58
386  54
387  49
388  46
389  46
390  47
391  40
392  37
393  49
394  47
395  57
396  44
397  53
398  32
399  40
400  54
401  34
402  53
403  58
404  35
405  50
406  57
407  51
408  33
409  51
410  38
411  40
412  46
413  45
414  38
415  43
416  43
417  47
418  57
419  43
420  61
421  37
422  49
423  34
424  66
425  57
426  53
427  56
428  52
429  53
430  54
431  47
432  42
433  36
434  44
435  43
436  65
437  41
438  40
439  55
440  50
441  33
442  42
443  49
444  39
445  38
446  41
447  35
448  47
449  41
450  41
451  40
452  52
453  45
454  50
455  62
456  50
457  38
458  57
459  53
460  48
461  52
462  42
463  47
464  45
465  52
466  57
467  57
468  60
469  47
470  51
471  50
472  55
473  53
474  49
475  43
476  60
477  39
478  44
479  61
480  47
481  44
482  49
483  60
484  49
485  47
486  59
487  52
488  32
489  51
490  60
491  55
492  49
493  38
494  40
495  58
496  36
497  46
498  48
499  41
500  41
501  63
502  42
503  51
504  49
505  44
506  55
507  37
508  49
509  47
510  44
511  30
512  35
513  38
514  44
515  33
516  36
517  38
518  32
519  36
520  36
521  34
522  41
523  38
524  30
525  35
526  23
527  31
528  32
529  38
530  21
531  27
532  19
533  22
534  22
535  30
536  18
537  20
538  24
539  15
540  19
541  23
542  19
543  17
544  19
545  16
546  14
547  27
548  20
549  18
550  20
551  18
552  21
553  20
554  21
555  17
556  24
557  9
558  20
559  13
560  18
561  23
562  20
563  21
564  22
565  10
566  19
567  28
568  23
569  26
570  19
571  20
572  33
573  29
574  32
575  30
576  33
577  30
578  43
579  24
580  38
581  35
582  31
583  38
584  33
585  32
586  44
587  26
588  44
589  33
590  40
591  46
592  47
593  53
594  50
595  52
596  53
597  64
598  63
599  64
600  63
601  65
602  62
603  58
604  76
605  81
606  70
607  73
608  71
609  72
610  78
611  80
612  74
613  75
614  85
615  101
616  71
617  68
618  76
619  80
620  77
621  80
622  74
623  81
624  83
625  72
626  70
627  67
628  71
629  74
630  58
631  54
632  67
633  66
634  51
635  54
636  37
637  43
638  41
639  34
640  44
641  36
642  39
643  36
644  35
645  25
646  27
647  29
648  25
649  20
650  22
651  17
652  19
653  22
654  14
655  12
656  10
657  8
658  17
659  10
660  13
661  8
662  8
663  14
664  6
665  11
666  12
667  2
668  8
669  3
670  2
671  4
672  2
673  5
674  3
675  3
676  3
677  4
678  4
679  4
680  3
681  3
682  1
683  1
684  6
685  3
686  3
687  4
688  3
689  4
690  4
691  2
692  4
693  5
694  2
695  3
696  3
697  1
698  4
699  2
700  1
701  2
702  1
703  2
704  4
705  2
706  2
707  2
708  4
709  3
710  3
711  2
712  3
713  3
714  1
715  1
716  1
717  3
718  4
719  4
720  4
721  1
722  4
723  0
724  0
725  2
726  1
727  2
728  0
729  2
730  2
731  0
732  1
733  2
734  1
735  0
736  2
737  2
738  1
739  1
740  2
741  4
742  1
743  0
744  1
745  0
746  2
747  2
748  3
749  0
750  1
751  2
752  0
753  2
754  2
755  1
756  1
757  2
758  1
759  2
760  1
761  0
762  1
763  0
764  1
765  1
766  1
767  1
768  1
769  1
770  0
771  1
772  2
773  1
774  2
775  2
776  0
777  0
778  0
779  0
780  1
781  0
782  3
783  0
784  1
785  3
786  1
787  0
788  2
789  2
790  0
791  1
792  2
793  0
794  0
795  1
796  0
797  0
798  0
799  4
800  2
801  4
802  1
803  2
804  3
805  1
806  6
807  3
808  8
809  1
810  10
811  7
812  16
813  11
814  8
815  13
816  104
817  67
818  44
819  1
820  0
821  0
822  0
823  0
824  0
825  0
826  0
827  0
828  0
829  0
830  0
831  0
832  0
833  0
834  0
835  0
836  0
837  0
838  0
839  0
840  0
841  0
842  0
843  0
844  0
845  0
846  0
847  0
848  0
849  0
850  0
851  0
852  0
853  0
854  0
855  0
856  0
857  0
858  0
859  0
860  0
861  0
862  0
863  0
864  0
865  0
866  0
867  0
868  0
869  0
870  0
871  0
872  0
873  0
874  0
875  0
876  0
877  0
878  0
879  0
880  0
881  0
882  0
883  0
884  0
885  0
886  0
887  0
888  0
889  0
890  0
891  0
892  0
893  0
894  0
895  0
896  0
897  0
898  0
899  0
900  0
901  0
902  0
903  0
904  0
905  0
906  0
907  0
908  0
909  0
910  0
911  0
912  0
913  0
914  0
915  0
916  0
917  0
918  0
919  0
920  0
921  0
922  0
923  0
924  0
925  0
926  0
927  0
928  0
929  0
930  0
931  0
932  0
933  0
934  0
935  0
936  0
937  0
938  0
939  0
940  0
941  1
942  1
943  0
944  2
945  0
946  2
947  4
948  0
949  0
950  0
951  0
952  0
953  0
954  0
955  1
956  0
957  0
958  1
959  0
960  0
961  0
962  1
963  1
964  0
965  0
966  0
967  2
968  0
969  1
970  0
971  1
972  1
973  2
974  0
975  0
976  3
977  4
978  1
979  0
980  1
981  0
982  1
983  1
984  2
985  0
986  2
987  1
988  0
989  2
990  3
991  1
992  4
993  4
994  2
995  3
996  4
997  2
998  2
999  0
1000  1
1001  1
1002  1
1003  2
1004  4
1005  3
1006  2
1007  0
1008  3
1009  7
1010  12
1011  18
1012  17
1013  30
1014  33
1015  41
1016  51
1017  53
1018  65
1019  81
1020  106
1021  136
1022  278
1023  993
