0  2054
1  2045
2  3570
3  8375
4  24381
5  55220
6  72160
7  44197
8  18474
9  6046
10  3074
11  1967
12  1298
13  949
14  686
15  470
16  349
17  303
18  226
19  170
20  149
21  120
22  94
23  90
24  79
25  60
26  47
27  41
28  39
29  28
30  31
31  26
32  20
33  19
34  20
35  18
36  14
37  19
38  12
39  17
40  8
41  11
42  8
43  14
44  5
45  10
46  11
47  8
48  9
49  8
50  7
51  7
52  8
53  8
54  10
55  9
56  13
57  8
58  13
59  5
60  4
61  15
62  10
63  14
64  19
65  22
66  24
67  36
68  62
69  134
70  312
71  525
72  735
73  779
74  754
75  848
76  824
77  835
78  806
79  787
80  858
81  810
82  842
83  841
84  858
85  835
86  899
87  853
88  876
89  885
90  878
91  885
92  884
93  881
94  938
95  889
96  938
97  981
98  994
99  915
100  960
101  920
102  939
103  870
104  960
105  876
106  897
107  902
108  878
109  889
110  834
111  808
112  815
113  765
114  711
115  745
116  714
117  716
118  697
119  686
120  647
121  673
122  622
123  660
124  636
125  598
126  645
127  536
128  606
129  591
130  570
131  529
132  565
133  550
134  531
135  505
136  542
137  491
138  524
139  530
140  509
141  488
142  467
143  424
144  454
145  473
146  475
147  393
148  441
149  419
150  401
151  439
152  454
153  405
154  392
155  400
156  383
157  448
158  426
159  400
160  372
161  381
162  399
163  365
164  371
165  376
166  388
167  331
168  329
169  333
170  342
171  339
172  307
173  316
174  269
175  300
176  330
177  276
178  267
179  227
180  248
181  213
182  240
183  218
184  222
185  220
186  202
187  177
188  175
189  166
190  186
191  152
192  199
193  148
194  173
195  157
196  184
197  149
198  146
199  145
200  117
201  127
202  143
203  140
204  141
205  141
206  130
207  134
208  131
209  146
210  124
211  116
212  143
213  122
214  132
215  143
216  151
217  153
218  135
219  145
220  156
221  148
222  158
223  179
224  171
225  161
226  156
227  169
228  198
229  196
230  195
231  191
232  240
233  228
234  255
235  306
236  255
237  308
238  307
239  363
240  330
241  380
242  429
243  420
244  481
245  475
246  520
247  507
248  590
249  650
250  689
251  681
252  765
253  740
254  738
255  803
256  871
257  887
258  854
259  853
260  903
261  923
262  875
263  821
264  877
265  856
266  816
267  757
268  712
269  712
270  668
271  641
272  629
273  525
274  520
275  420
276  398
277  380
278  340
279  250
280  273
281  221
282  182
283  184
284  173
285  163
286  125
287  103
288  115
289  91
290  73
291  81
292  76
293  63
294  71
295  67
296  60
297  59
298  42
299  50
300  59
301  54
302  45
303  52
304  50
305  49
306  57
307  47
308  62
309  50
310  45
311  61
312  50
313  55
314  51
315  56
316  46
317  52
318  52
319  47
320  40
321  46
322  41
323  59
324  41
325  50
326  42
327  45
328  40
329  40
330  56
331  36
332  49
333  48
334  58
335  66
336  39
337  51
338  48
339  70
340  50
341  44
342  45
343  39
344  35
345  41
346  51
347  40
348  41
349  49
350  51
351  50
352  50
353  44
354  43
355  42
356  45
357  47
358  50
359  55
360  49
361  50
362  68
363  44
364  44
365  35
366  49
367  40
368  40
369  46
370  45
371  40
372  54
373  45
374  46
375  39
376  47
377  62
378  43
379  48
380  43
381  46
382  45
383  46
384  43
385  44
386  40
387  37
388  51
389  39
390  41
391  48
392  42
393  43
394  40
395  64
396  51
397  49
398  45
399  46
400  47
401  48
402  41
403  49
404  38
405  44
406  51
407  52
408  40
409  37
410  62
411  40
412  47
413  46
414  49
415  36
416  63
417  42
418  43
419  53
420  53
421  46
422  38
423  37
424  51
425  62
426  45
427  45
428  50
429  56
430  59
431  52
432  41
433  45
434  49
435  41
436  46
437  43
438  37
439  37
440  38
441  41
442  51
443  54
444  52
445  46
446  52
447  43
448  55
449  52
450  43
451  41
452  58
453  60
454  52
455  55
456  48
457  43
458  52
459  49
460  31
461  53
462  58
463  34
464  52
465  36
466  55
467  54
468  54
469  60
470  56
471  56
472  42
473  64
474  51
475  41
476  51
477  49
478  51
479  51
480  52
481  49
482  42
483  43
484  57
485  55
486  43
487  51
488  37
489  44
490  50
491  59
492  49
493  53
494  44
495  42
496  46
497  47
498  38
499  39
500  60
501  52
502  46
503  48
504  39
505  38
506  49
507  53
508  42
509  55
510  50
511  35
512  50
513  51
514  43
515  29
516  44
517  45
518  43
519  43
520  31
521  38
522  36
523  26
524  32
525  26
526  44
527  39
528  27
529  36
530  34
531  26
532  32
533  25
534  30
535  24
536  22
537  23
538  23
539  35
540  20
541  16
542  18
543  20
544  20
545  21
546  19
547  20
548  23
549  28
550  22
551  16
552  27
553  24
554  17
555  23
556  19
557  19
558  25
559  23
560  21
561  13
562  27
563  15
564  18
565  17
566  20
567  22
568  23
569  24
570  32
571  19
572  17
573  25
574  24
575  17
576  21
577  23
578  20
579  23
580  23
581  26
582  29
583  27
584  33
585  27
586  28
587  34
588  37
589  29
590  35
591  33
592  27
593  38
594  45
595  44
596  51
597  51
598  57
599  52
600  63
601  56
602  59
603  66
604  50
605  69
606  75
607  61
608  53
609  85
610  76
611  78
612  83
613  65
614  69
615  81
616  68
617  82
618  70
619  79
620  75
621  79
622  72
623  72
624  86
625  72
626  65
627  65
628  63
629  70
630  68
631  76
632  61
633  52
634  50
635  62
636  59
637  50
638  38
639  40
640  47
641  50
642  44
643  53
644  36
645  33
646  47
647  46
648  37
649  29
650  34
651  29
652  21
653  30
654  28
655  23
656  31
657  17
658  15
659  13
660  10
661  16
662  6
663  13
664  8
665  5
666  7
667  6
668  6
669  3
670  5
671  4
672  6
673  9
674  3
675  6
676  4
677  3
678  5
679  5
680  3
681  6
682  4
683  3
684  1
685  2
686  4
687  1
688  4
689  4
690  3
691  1
692  2
693  1
694  1
695  1
696  0
697  2
698  5
699  1
700  0
701  3
702  5
703  1
704  4
705  3
706  2
707  0
708  1
709  4
710  4
711  3
712  4
713  4
714  4
715  4
716  1
717  4
718  3
719  2
720  4
721  1
722  3
723  3
724  8
725  0
726  3
727  1
728  2
729  2
730  3
731  2
732  2
733  4
734  1
735  1
736  0
737  0
738  1
739  3
740  2
741  0
742  1
743  1
744  0
745  0
746  0
747  3
748  0
749  2
750  3
751  0
752  1
753  0
754  1
755  0
756  0
757  0
758  1
759  0
760  0
761  1
762  0
763  1
764  0
765  2
766  3
767  3
768  0
769  1
770  0
771  4
772  0
773  2
774  2
775  0
776  1
777  0
778  3
779  0
780  1
781  0
782  0
783  0
784  0
785  4
786  0
787  1
788  2
789  1
790  0
791  3
792  0
793  2
794  1
795  0
796  0
797  2
798  1
799  1
800  1
801  0
802  1
803  1
804  1
805  2
806  4
807  4
808  6
809  7
810  6
811  11
812  12
813  15
814  12
815  17
816  131
817  57
818  28
819  0
820  2
821  0
822  0
823  0
824  0
825  0
826  0
827  0
828  0
829  0
830  0
831  0
832  0
833  0
834  0
835  0
836  0
837  0
838  0
839  0
840  0
841  0
842  0
843  0
844  0
845  0
846  0
847  0
848  0
849  0
850  0
851  0
852  0
853  0
854  0
855  0
856  0
857  0
858  0
859  0
860  0
861  0
862  0
863  0
864  0
865  0
866  0
867  0
868  0
869  0
870  0
871  0
872  0
873  0
874  0
875  0
876  0
877  0
878  0
879  0
880  0
881  0
882  0
883  0
884  0
885  0
886  0
887  0
888  0
889  0
890  0
891  0
892  0
893  0
894  0
895  0
896  0
897  0
898  0
899  0
900  0
901  0
902  0
903  0
904  0
905  0
906  0
907  0
908  0
909  0
910  0
911  0
912  0
913  0
914  0
915  0
916  0
917  0
918  0
919  0
920  0
921  0
922  0
923  0
924  0
925  0
926  0
927  0
928  0
929  0
930  0
931  0
932  0
933  0
934  0
935  0
936  0
937  0
938  0
939  0
940  0
941  0
942  1
943  0
944  0
945  0
946  1
947  0
948  1
949  0
950  1
951  3
952  1
953  2
954  2
955  2
956  0
957  1
958  1
959  2
960  1
961  2
962  0
963  0
964  5
965  2
966  0
967  0
968  0
969  1
970  4
971  0
972  2
973  1
974  0
975  1
976  1
977  2
978  3
979  5
980  2
981  0
982  4
983  2
984  0
985  0
986  1
987  0
988  3
989  1
990  5
991  1
992  2
993  3
994  1
995  2
996  1
997  5
998  1
999  3
1000  1
1001  4
1002  2
1003  3
1004  2
1005  2
1006  5
1007  2
1008  1
1009  9
1010  10
1011  17
1012  33
1013  49
1014  58
1015  67
1016  74
1017  54
1018  85
1019  68
1020  109
1021  173
1022  321
1023  1301
