0  614
1  421
2  856
3  1762
4  3449
5  6866
6  12244
7  17681
8  20490
9  15407
10  9244
11  4638
12  2168
13  1077
14  550
15  270
16  164
17  109
18  81
19  77
20  72
21  67
22  56
23  68
24  65
25  77
26  75
27  61
28  59
29  75
30  76
31  69
32  73
33  64
34  68
35  61
36  75
37  92
38  68
39  75
40  74
41  91
42  68
43  71
44  68
45  76
46  78
47  78
48  52
49  51
50  61
51  37
52  50
53  65
54  111
55  174
56  360
57  590
58  765
59  889
60  1026
61  1043
62  1073
63  1048
64  1104
65  1133
66  1082
67  1058
68  1178
69  1189
70  1119
71  1136
72  1188
73  1194
74  1139
75  1204
76  1192
77  1141
78  1231
79  1176
80  1230
81  1175
82  1237
83  1248
84  1253
85  1242
86  1207
87  1145
88  1280
89  1326
90  1154
91  1144
92  1229
93  1246
94  1240
95  1212
96  1195
97  1185
98  1244
99  1268
100  1332
101  1277
102  1274
103  1288
104  1309
105  1329
106  1301
107  1278
108  1250
109  1381
110  1314
111  1198
112  1319
113  1275
114  1264
115  1175
116  1286
117  1224
118  1221
119  1225
120  1234
121  1144
122  1200
123  1151
124  1171
125  1161
126  1152
127  1079
128  1133
129  1133
130  1109
131  1059
132  1060
133  1066
134  1080
135  996
136  1068
137  1019
138  944
139  894
140  1006
141  972
142  921
143  940
144  891
145  888
146  906
147  851
148  873
149  821
150  830
151  733
152  867
153  796
154  746
155  760
156  758
157  741
158  725
159  669
160  748
161  718
162  700
163  695
164  659
165  638
166  706
167  615
168  704
169  639
170  632
171  585
172  665
173  616
174  614
175  600
176  587
177  589
178  591
179  603
180  548
181  547
182  562
183  537
184  569
185  510
186  486
187  508
188  504
189  497
190  490
191  455
192  521
193  467
194  473
195  431
196  441
197  419
198  440
199  395
200  409
201  416
202  392
203  396
204  416
205  373
206  364
207  366
208  339
209  357
210  356
211  358
212  328
213  326
214  313
215  317
216  317
217  295
218  289
219  285
220  276
221  288
222  250
223  261
224  282
225  238
226  271
227  260
228  281
229  274
230  273
231  236
232  255
233  277
234  250
235  268
236  240
237  265
238  245
239  246
240  266
241  284
242  294
243  282
244  277
245  283
246  301
247  302
248  376
249  359
250  376
251  373
252  424
253  443
254  446
255  448
256  528
257  533
258  590
259  595
260  628
261  712
262  717
263  759
264  856
265  812
266  830
267  885
268  967
269  954
270  939
271  1017
272  1102
273  1080
274  1099
275  1135
276  1182
277  1181
278  1273
279  1197
280  1253
281  1179
282  1218
283  1236
284  1222
285  1211
286  1147
287  1196
288  1196
289  1178
290  1099
291  986
292  1088
293  1087
294  1052
295  1004
296  1023
297  930
298  970
299  844
300  845
301  876
302  821
303  762
304  769
305  703
306  714
307  592
308  654
309  610
310  549
311  544
312  512
313  532
314  481
315  396
316  402
317  371
318  383
319  367
320  362
321  338
322  325
323  316
324  284
325  264
326  253
327  240
328  234
329  229
330  212
331  211
332  212
333  195
334  207
335  143
336  189
337  151
338  144
339  159
340  142
341  147
342  126
343  121
344  137
345  126
346  124
347  101
348  114
349  114
350  113
351  94
352  92
353  103
354  100
355  95
356  110
357  101
358  107
359  83
360  90
361  95
362  74
363  93
364  92
365  98
366  102
367  86
368  82
369  85
370  103
371  92
372  79
373  72
374  80
375  80
376  96
377  69
378  78
379  78
380  82
381  66
382  74
383  78
384  83
385  74
386  81
387  62
388  69
389  82
390  75
391  84
392  87
393  95
394  91
395  85
396  77
397  80
398  72
399  82
400  76
401  78
402  81
403  76
404  82
405  93
406  84
407  79
408  76
409  85
410  72
411  78
412  85
413  94
414  85
415  76
416  72
417  67
418  62
419  79
420  97
421  70
422  84
423  78
424  91
425  70
426  76
427  88
428  95
429  87
430  88
431  72
432  69
433  94
434  80
435  64
436  85
437  72
438  91
439  103
440  86
441  96
442  82
443  77
444  80
445  73
446  79
447  83
448  75
449  78
450  92
451  76
452  87
453  75
454  85
455  81
456  84
457  93
458  78
459  94
460  86
461  90
462  73
463  106
464  87
465  82
466  82
467  92
468  85
469  90
470  89
471  80
472  82
473  75
474  97
475  83
476  106
477  81
478  87
479  76
480  95
481  87
482  88
483  62
484  91
485  91
486  87
487  98
488  83
489  101
490  91
491  82
492  86
493  94
494  83
495  69
496  71
497  94
498  92
499  82
500  90
501  79
502  66
503  73
504  90
505  75
506  82
507  79
508  74
509  68
510  70
511  47
512  101
513  86
514  86
515  84
516  77
517  88
518  91
519  97
520  78
521  82
522  74
523  67
524  67
525  94
526  79
527  67
528  85
529  84
530  75
531  77
532  78
533  84
534  94
535  75
536  63
537  79
538  64
539  83
540  75
541  72
542  76
543  57
544  77
545  63
546  72
547  71
548  83
549  68
550  52
551  56
552  47
553  74
554  61
555  63
556  64
557  70
558  63
559  58
560  69
561  60
562  57
563  54
564  69
565  55
566  68
567  52
568  60
569  59
570  79
571  66
572  54
573  51
574  51
575  58
576  61
577  58
578  51
579  49
580  53
581  47
582  72
583  52
584  66
585  53
586  56
587  49
588  55
589  54
590  46
591  46
592  54
593  43
594  44
595  58
596  61
597  43
598  50
599  52
600  59
601  54
602  51
603  60
604  50
605  52
606  55
607  48
608  49
609  56
610  53
611  77
612  57
613  60
614  58
615  70
616  60
617  64
618  56
619  64
620  74
621  75
622  72
623  68
624  78
625  71
626  83
627  73
628  72
629  96
630  90
631  98
632  92
633  92
634  88
635  101
636  100
637  103
638  113
639  100
640  120
641  121
642  126
643  102
644  112
645  132
646  153
647  104
648  106
649  130
650  112
651  115
652  132
653  130
654  142
655  128
656  146
657  146
658  135
659  124
660  124
661  158
662  152
663  135
664  147
665  128
666  120
667  128
668  136
669  148
670  137
671  133
672  130
673  135
674  125
675  150
676  129
677  143
678  96
679  135
680  98
681  122
682  125
683  133
684  117
685  82
686  91
687  114
688  92
689  118
690  101
691  96
692  105
693  95
694  94
695  85
696  93
697  95
698  86
699  88
700  94
701  71
702  81
703  67
704  60
705  57
706  80
707  76
708  71
709  72
710  61
711  51
712  62
713  57
714  47
715  76
716  46
717  48
718  35
719  59
720  52
721  54
722  43
723  46
724  39
725  43
726  49
727  34
728  34
729  29
730  48
731  38
732  34
733  36
734  38
735  37
736  41
737  28
738  35
739  26
740  25
741  31
742  37
743  16
744  25
745  29
746  22
747  39
748  20
749  22
750  25
751  26
752  28
753  22
754  14
755  15
756  20
757  30
758  17
759  25
760  21
761  14
762  22
763  15
764  23
765  16
766  12
767  22
768  9
769  7
770  11
771  10
772  12
773  8
774  16
775  9
776  12
777  11
778  9
779  13
780  6
781  10
782  9
783  12
784  9
785  6
786  3
787  8
788  11
789  10
790  5
791  6
792  8
793  11
794  13
795  4
796  7
797  5
798  11
799  6
800  6
801  5
802  3
803  11
804  4
805  8
806  3
807  8
808  4
809  5
810  4
811  7
812  7
813  6
814  7
815  4
816  26
817  7
818  9
819  5
820  4
821  7
822  6
823  4
824  6
825  4
826  7
827  3
828  4
829  10
830  9
831  14
832  11
833  17
834  20
835  29
836  44
837  53
838  62
839  59
840  55
841  63
842  46
843  216
844  136
845  135
846  84
847  0
848  0
849  0
850  0
851  0
852  0
853  0
854  0
855  0
856  0
857  0
858  0
859  0
860  0
861  0
862  0
863  0
864  0
865  0
866  0
867  0
868  0
869  0
870  0
871  0
872  0
873  0
874  0
875  0
876  0
877  0
878  0
879  0
880  0
881  0
882  0
883  0
884  0
885  0
886  0
887  0
888  0
889  0
890  0
891  0
892  0
893  0
894  0
895  0
896  0
897  0
898  0
899  0
900  0
901  0
902  0
903  0
904  0
905  0
906  0
907  0
908  0
909  0
910  0
911  0
912  0
913  0
914  0
915  0
916  0
917  0
918  0
919  0
920  0
921  0
922  0
923  0
924  0
925  0
926  0
927  0
928  0
929  0
930  0
931  0
932  0
933  0
934  0
935  0
936  0
937  0
938  0
939  0
940  0
941  0
942  1
943  0
944  0
945  0
946  0
947  0
948  0
949  0
950  0
951  0
952  0
953  0
954  0
955  0
956  0
957  0
958  0
959  0
960  1
961  1
962  0
963  0
964  1
965  0
966  0
967  0
968  0
969  0
970  0
971  0
972  0
973  0
974  0
975  0
976  0
977  0
978  0
979  0
980  1
981  0
982  0
983  0
984  1
985  0
986  1
987  0
988  2
989  0
990  0
991  0
992  2
993  1
994  1
995  0
996  1
997  0
998  1
999  0
1000  0
1001  0
1002  0
1003  0
1004  0
1005  0
1006  0
1007  1
1008  1
1009  0
1010  0
1011  0
1012  1
1013  0
1014  0
1015  0
1016  3
1017  2
1018  6
1019  3
1020  4
1021  4
1022  6
1023  23
