0  781
1  551
2  1101
3  2132
4  4348
5  8693
6  15461
7  22105
8  26541
9  19256
10  11404
11  5468
12  2703
13  1229
14  614
15  283
16  130
17  66
18  24
19  17
20  8
21  11
22  6
23  6
24  4
25  5
26  7
27  7
28  3
29  5
30  7
31  6
32  7
33  6
34  8
35  7
36  5
37  2
38  9
39  1
40  4
41  4
42  4
43  4
44  6
45  3
46  12
47  5
48  8
49  7
50  8
51  15
52  29
53  53
54  89
55  177
56  388
57  600
58  786
59  914
60  983
61  1114
62  997
63  1067
64  1187
65  1173
66  1092
67  1048
68  1132
69  1126
70  1181
71  1075
72  1199
73  1229
74  1127
75  1155
76  1217
77  1240
78  1167
79  1167
80  1230
81  1161
82  1151
83  1142
84  1279
85  1237
86  1203
87  1172
88  1208
89  1231
90  1215
91  1258
92  1216
93  1322
94  1224
95  1254
96  1306
97  1215
98  1224
99  1184
100  1263
101  1284
102  1357
103  1237
104  1289
105  1302
106  1319
107  1260
108  1290
109  1229
110  1282
111  1258
112  1318
113  1315
114  1215
115  1301
116  1243
117  1278
118  1226
119  1134
120  1234
121  1206
122  1225
123  1238
124  1187
125  1201
126  1196
127  1048
128  1202
129  1120
130  1084
131  1105
132  1069
133  1105
134  1012
135  1008
136  1072
137  1003
138  988
139  965
140  949
141  931
142  953
143  883
144  857
145  836
146  849
147  809
148  803
149  848
150  831
151  774
152  834
153  772
154  779
155  770
156  748
157  726
158  712
159  698
160  696
161  689
162  655
163  669
164  744
165  671
166  701
167  617
168  677
169  651
170  615
171  628
172  617
173  585
174  614
175  550
176  605
177  621
178  581
179  566
180  567
181  517
182  532
183  538
184  586
185  545
186  552
187  493
188  497
189  508
190  500
191  530
192  464
193  471
194  447
195  448
196  441
197  434
198  435
199  444
200  438
201  400
202  404
203  387
204  350
205  393
206  393
207  350
208  377
209  369
210  343
211  347
212  336
213  332
214  306
215  306
216  288
217  312
218  280
219  273
220  263
221  260
222  282
223  285
224  281
225  254
226  269
227  228
228  244
229  282
230  252
231  231
232  245
233  255
234  263
235  254
236  262
237  271
238  258
239  306
240  249
241  273
242  260
243  293
244  311
245  291
246  347
247  329
248  358
249  361
250  363
251  398
252  417
253  470
254  470
255  467
256  528
257  501
258  560
259  598
260  669
261  732
262  759
263  714
264  815
265  891
266  834
267  885
268  983
269  960
270  1063
271  998
272  1053
273  1069
274  1112
275  1142
276  1207
277  1144
278  1220
279  1222
280  1212
281  1231
282  1273
283  1272
284  1205
285  1239
286  1278
287  1166
288  1216
289  1165
290  1144
291  1072
292  1094
293  1180
294  1057
295  1012
296  1013
297  965
298  908
299  916
300  823
301  840
302  755
303  658
304  751
305  729
306  703
307  645
308  634
309  619
310  568
311  524
312  498
313  475
314  460
315  455
316  407
317  396
318  358
319  365
320  324
321  327
322  336
323  280
324  282
325  279
326  246
327  252
328  230
329  261
330  231
331  212
332  214
333  191
334  189
335  141
336  194
337  186
338  142
339  142
340  148
341  149
342  130
343  121
344  139
345  127
346  123
347  116
348  117
349  136
350  113
351  102
352  98
353  108
354  93
355  121
356  91
357  90
358  115
359  75
360  120
361  87
362  98
363  77
364  85
365  85
366  125
367  76
368  82
369  89
370  84
371  77
372  78
373  86
374  86
375  87
376  75
377  66
378  72
379  105
380  74
381  106
382  75
383  62
384  67
385  83
386  82
387  91
388  91
389  106
390  78
391  73
392  91
393  78
394  84
395  90
396  84
397  80
398  94
399  82
400  100
401  74
402  93
403  84
404  92
405  75
406  84
407  87
408  96
409  76
410  83
411  91
412  73
413  72
414  71
415  91
416  78
417  77
418  86
419  95
420  95
421  82
422  90
423  84
424  88
425  91
426  83
427  85
428  81
429  82
430  76
431  95
432  81
433  84
434  78
435  73
436  83
437  98
438  90
439  80
440  81
441  82
442  62
443  81
444  80
445  90
446  87
447  75
448  78
449  83
450  92
451  87
452  89
453  75
454  93
455  81
456  72
457  88
458  92
459  81
460  77
461  76
462  74
463  78
464  65
465  93
466  84
467  83
468  99
469  87
470  97
471  90
472  79
473  72
474  101
475  75
476  100
477  100
478  81
479  90
480  81
481  72
482  75
483  81
484  103
485  89
486  90
487  89
488  72
489  108
490  90
491  99
492  100
493  68
494  78
495  79
496  71
497  102
498  107
499  80
500  73
501  80
502  84
503  100
504  77
505  82
506  84
507  79
508  74
509  75
510  71
511  48
512  92
513  81
514  90
515  67
516  89
517  72
518  79
519  70
520  75
521  73
522  70
523  82
524  79
525  83
526  77
527  63
528  79
529  82
530  91
531  79
532  71
533  71
534  73
535  76
536  76
537  80
538  77
539  80
540  72
541  70
542  84
543  81
544  71
545  73
546  66
547  71
548  63
549  54
550  73
551  77
552  77
553  76
554  66
555  53
556  67
557  53
558  60
559  52
560  60
561  77
562  61
563  57
564  74
565  55
566  48
567  44
568  57
569  61
570  58
571  46
572  65
573  56
574  52
575  57
576  66
577  43
578  56
579  53
580  41
581  62
582  42
583  44
584  45
585  36
586  41
587  52
588  36
589  45
590  40
591  52
592  55
593  42
594  48
595  44
596  52
597  42
598  46
599  42
600  55
601  52
602  51
603  45
604  69
605  53
606  57
607  49
608  47
609  63
610  65
611  79
612  42
613  60
614  70
615  56
616  63
617  65
618  60
619  59
620  67
621  62
622  68
623  97
624  80
625  75
626  92
627  82
628  94
629  97
630  94
631  104
632  88
633  113
634  109
635  108
636  88
637  109
638  102
639  93
640  104
641  112
642  109
643  122
644  126
645  119
646  118
647  110
648  128
649  143
650  110
651  145
652  141
653  141
654  133
655  150
656  130
657  128
658  155
659  135
660  131
661  134
662  140
663  126
664  150
665  124
666  134
667  141
668  133
669  130
670  156
671  136
672  126
673  141
674  143
675  130
676  121
677  127
678  134
679  125
680  133
681  110
682  115
683  99
684  103
685  111
686  115
687  99
688  111
689  97
690  103
691  95
692  89
693  79
694  98
695  100
696  98
697  95
698  81
699  85
700  88
701  89
702  82
703  75
704  76
705  67
706  77
707  71
708  63
709  62
710  70
711  66
712  70
713  66
714  65
715  59
716  43
717  65
718  55
719  54
720  43
721  57
722  56
723  56
724  48
725  43
726  43
727  36
728  43
729  45
730  35
731  39
732  36
733  39
734  38
735  35
736  33
737  35
738  32
739  22
740  34
741  31
742  26
743  16
744  33
745  21
746  30
747  23
748  28
749  28
750  31
751  22
752  17
753  16
754  24
755  22
756  24
757  18
758  13
759  16
760  17
761  18
762  16
763  14
764  13
765  24
766  12
767  8
768  11
769  21
770  12
771  10
772  12
773  17
774  17
775  16
776  7
777  7
778  5
779  10
780  9
781  11
782  15
783  10
784  12
785  9
786  5
787  3
788  10
789  10
790  13
791  6
792  11
793  7
794  3
795  6
796  3
797  4
798  7
799  7
800  5
801  8
802  5
803  7
804  6
805  9
806  7
807  7
808  2
809  6
810  7
811  3
812  3
813  5
814  5
815  3
816  40
817  1
818  6
819  1
820  3
821  3
822  4
823  5
824  2
825  9
826  7
827  5
828  3
829  7
830  11
831  10
832  13
833  16
834  26
835  20
836  39
837  54
838  56
839  39
840  42
841  52
842  83
843  212
844  124
845  141
846  52
847  0
848  0
849  0
850  0
851  0
852  0
853  0
854  0
855  0
856  0
857  0
858  0
859  0
860  0
861  0
862  0
863  0
864  0
865  0
866  0
867  0
868  0
869  0
870  0
871  0
872  0
873  0
874  0
875  0
876  0
877  0
878  0
879  0
880  0
881  0
882  0
883  0
884  0
885  0
886  0
887  0
888  0
889  0
890  0
891  0
892  0
893  0
894  0
895  0
896  0
897  0
898  0
899  0
900  0
901  0
902  0
903  0
904  0
905  0
906  0
907  0
908  0
909  0
910  0
911  0
912  0
913  0
914  0
915  0
916  0
917  0
918  0
919  0
920  0
921  0
922  0
923  0
924  0
925  0
926  0
927  0
928  0
929  0
930  0
931  0
932  0
933  0
934  0
935  0
936  0
937  0
938  0
939  0
940  0
941  0
942  0
943  0
944  0
945  1
946  0
947  0
948  0
949  0
950  0
951  0
952  1
953  0
954  0
955  0
956  0
957  0
958  0
959  0
960  0
961  0
962  0
963  1
964  1
965  1
966  0
967  0
968  0
969  1
970  0
971  0
972  0
973  1
974  0
975  0
976  0
977  1
978  1
979  0
980  3
981  0
982  3
983  1
984  0
985  0
986  0
987  0
988  0
989  0
990  1
991  0
992  1
993  1
994  2
995  0
996  0
997  0
998  0
999  0
1000  1
1001  0
1002  0
1003  0
1004  0
1005  0
1006  1
1007  0
1008  1
1009  1
1010  0
1011  0
1012  0
1013  1
1014  0
1015  1
1016  0
1017  2
1018  0
1019  1
1020  6
1021  6
1022  8
1023  33
