0  1764
1  1794
2  3159
3  7440
4  21950
5  48962
6  63543
7  38333
8  15881
9  5367
10  2740
11  1735
12  1218
13  849
14  635
15  448
16  405
17  334
18  248
19  252
20  216
21  196
22  186
23  158
24  181
25  135
26  140
27  133
28  115
29  102
30  110
31  116
32  117
33  119
34  95
35  108
36  122
37  96
38  101
39  100
40  124
41  120
42  121
43  105
44  112
45  93
46  101
47  104
48  111
49  99
50  101
51  102
52  116
53  109
54  101
55  118
56  107
57  104
58  113
59  87
60  108
61  97
62  95
63  105
64  109
65  147
66  94
67  111
68  152
69  203
70  360
71  606
72  776
73  810
74  877
75  804
76  892
77  828
78  864
79  807
80  855
81  851
82  861
83  853
84  839
85  903
86  937
87  840
88  898
89  917
90  933
91  926
92  878
93  948
94  920
95  891
96  989
97  950
98  962
99  944
100  989
101  1003
102  1038
103  893
104  949
105  965
106  896
107  905
108  835
109  861
110  830
111  853
112  756
113  731
114  809
115  734
116  818
117  694
118  712
119  662
120  717
121  651
122  638
123  618
124  655
125  611
126  609
127  567
128  592
129  598
130  563
131  534
132  538
133  545
134  514
135  493
136  524
137  469
138  516
139  439
140  418
141  474
142  467
143  475
144  458
145  424
146  460
147  434
148  429
149  410
150  427
151  415
152  445
153  397
154  418
155  420
156  450
157  390
158  392
159  389
160  392
161  378
162  433
163  395
164  329
165  366
166  352
167  331
168  321
169  306
170  309
171  336
172  341
173  309
174  272
175  307
176  277
177  275
178  277
179  249
180  245
181  223
182  221
183  221
184  227
185  181
186  199
187  168
188  197
189  162
190  167
191  137
192  187
193  164
194  155
195  157
196  136
197  157
198  160
199  133
200  165
201  146
202  152
203  160
204  134
205  122
206  140
207  146
208  137
209  151
210  149
211  139
212  132
213  133
214  139
215  145
216  159
217  141
218  125
219  150
220  155
221  155
222  182
223  142
224  174
225  173
226  187
227  176
228  190
229  194
230  212
231  178
232  240
233  222
234  255
235  247
236  253
237  311
238  315
239  334
240  347
241  382
242  399
243  452
244  470
245  497
246  520
247  540
248  588
249  594
250  660
251  648
252  689
253  721
254  799
255  759
256  901
257  873
258  888
259  874
260  880
261  894
262  885
263  831
264  907
265  848
266  835
267  771
268  727
269  710
270  655
271  619
272  635
273  580
274  476
275  479
276  421
277  376
278  394
279  300
280  309
281  256
282  218
283  206
284  177
285  172
286  147
287  145
288  108
289  128
290  107
291  90
292  83
293  53
294  74
295  61
296  50
297  51
298  55
299  63
300  69
301  57
302  52
303  51
304  59
305  58
306  53
307  54
308  61
309  50
310  54
311  52
312  46
313  40
314  50
315  56
316  49
317  42
318  61
319  52
320  48
321  44
322  46
323  55
324  43
325  46
326  40
327  41
328  38
329  36
330  42
331  34
332  57
333  56
334  38
335  42
336  43
337  40
338  42
339  36
340  49
341  39
342  50
343  36
344  49
345  51
346  55
347  49
348  55
349  47
350  44
351  49
352  43
353  45
354  56
355  49
356  33
357  46
358  46
359  44
360  48
361  39
362  40
363  53
364  50
365  41
366  48
367  45
368  43
369  45
370  58
371  51
372  52
373  46
374  48
375  35
376  52
377  44
378  48
379  38
380  59
381  50
382  55
383  55
384  55
385  45
386  71
387  44
388  47
389  59
390  44
391  50
392  40
393  44
394  46
395  55
396  43
397  67
398  42
399  58
400  55
401  49
402  43
403  45
404  43
405  41
406  37
407  43
408  54
409  41
410  50
411  43
412  47
413  45
414  35
415  45
416  56
417  61
418  48
419  49
420  45
421  36
422  54
423  52
424  44
425  50
426  42
427  45
428  44
429  52
430  49
431  51
432  52
433  54
434  43
435  65
436  54
437  39
438  41
439  57
440  60
441  51
442  40
443  44
444  55
445  36
446  57
447  34
448  52
449  62
450  38
451  52
452  50
453  64
454  54
455  43
456  50
457  54
458  48
459  55
460  47
461  57
462  40
463  47
464  66
465  43
466  55
467  49
468  59
469  36
470  51
471  58
472  36
473  45
474  43
475  33
476  52
477  53
478  42
479  62
480  44
481  56
482  52
483  39
484  59
485  59
486  68
487  46
488  47
489  56
490  58
491  52
492  51
493  57
494  63
495  46
496  45
497  52
498  53
499  43
500  51
501  53
502  42
503  53
504  60
505  39
506  47
507  58
508  42
509  42
510  44
511  27
512  44
513  54
514  46
515  52
516  37
517  24
518  28
519  33
520  36
521  30
522  29
523  28
524  34
525  27
526  39
527  28
528  32
529  32
530  31
531  27
532  23
533  23
534  27
535  19
536  22
537  33
538  29
539  18
540  22
541  26
542  22
543  15
544  28
545  22
546  23
547  11
548  16
549  23
550  25
551  16
552  20
553  14
554  17
555  18
556  8
557  15
558  21
559  11
560  14
561  29
562  26
563  18
564  26
565  28
566  17
567  27
568  20
569  31
570  17
571  24
572  20
573  27
574  18
575  40
576  25
577  30
578  35
579  31
580  32
581  36
582  39
583  25
584  41
585  26
586  33
587  50
588  50
589  47
590  57
591  42
592  53
593  53
594  51
595  57
596  64
597  62
598  49
599  50
600  50
601  77
602  78
603  56
604  82
605  70
606  64
607  77
608  77
609  67
610  63
611  73
612  72
613  62
614  81
615  86
616  96
617  72
618  73
619  76
620  78
621  68
622  67
623  74
624  73
625  79
626  62
627  58
628  70
629  67
630  59
631  75
632  53
633  59
634  50
635  56
636  40
637  48
638  35
639  38
640  47
641  37
642  45
643  33
644  39
645  35
646  18
647  28
648  26
649  24
650  18
651  19
652  11
653  18
654  19
655  14
656  12
657  18
658  10
659  13
660  8
661  9
662  7
663  6
664  7
665  4
666  2
667  6
668  6
669  7
670  4
671  5
672  3
673  3
674  1
675  5
676  4
677  2
678  3
679  4
680  5
681  0
682  4
683  5
684  5
685  4
686  4
687  1
688  1
689  4
690  3
691  1
692  3
693  2
694  3
695  4
696  2
697  3
698  5
699  3
700  2
701  4
702  2
703  1
704  6
705  3
706  5
707  4
708  2
709  6
710  6
711  5
712  6
713  3
714  1
715  3
716  1
717  3
718  3
719  3
720  3
721  2
722  0
723  4
724  3
725  2
726  1
727  2
728  2
729  2
730  1
731  0
732  2
733  2
734  0
735  4
736  0
737  1
738  1
739  2
740  1
741  4
742  0
743  1
744  0
745  0
746  0
747  0
748  0
749  2
750  2
751  2
752  1
753  1
754  1
755  0
756  4
757  0
758  0
759  1
760  1
761  1
762  2
763  1
764  1
765  1
766  0
767  1
768  0
769  0
770  0
771  2
772  1
773  0
774  0
775  2
776  1
777  0
778  2
779  0
780  2
781  1
782  0
783  1
784  2
785  1
786  0
787  1
788  1
789  0
790  1
791  0
792  0
793  1
794  1
795  2
796  2
797  2
798  2
799  1
800  0
801  1
802  1
803  1
804  2
805  2
806  3
807  2
808  5
809  5
810  7
811  12
812  10
813  12
814  17
815  9
816  123
817  59
818  33
819  0
820  0
821  0
822  0
823  0
824  0
825  0
826  0
827  0
828  0
829  0
830  0
831  0
832  0
833  0
834  0
835  0
836  0
837  0
838  0
839  0
840  0
841  0
842  0
843  0
844  1
845  0
846  0
847  0
848  0
849  0
850  0
851  0
852  0
853  0
854  0
855  0
856  0
857  0
858  0
859  0
860  0
861  0
862  0
863  0
864  0
865  0
866  0
867  0
868  0
869  0
870  0
871  0
872  0
873  0
874  0
875  0
876  0
877  0
878  0
879  0
880  0
881  0
882  0
883  0
884  0
885  0
886  0
887  0
888  0
889  0
890  0
891  0
892  0
893  0
894  0
895  0
896  0
897  0
898  0
899  0
900  0
901  0
902  0
903  0
904  0
905  0
906  0
907  0
908  0
909  0
910  0
911  0
912  0
913  0
914  0
915  0
916  0
917  0
918  0
919  0
920  0
921  0
922  0
923  0
924  0
925  0
926  0
927  0
928  0
929  0
930  0
931  0
932  0
933  0
934  0
935  0
936  0
937  0
938  0
939  0
940  0
941  2
942  1
943  0
944  0
945  1
946  2
947  1
948  4
949  1
950  2
951  0
952  2
953  0
954  1
955  0
956  1
957  0
958  1
959  3
960  2
961  1
962  0
963  1
964  3
965  1
966  0
967  2
968  3
969  1
970  0
971  0
972  0
973  1
974  0
975  1
976  1
977  0
978  1
979  3
980  1
981  1
982  6
983  3
984  1
985  1
986  0
987  3
988  3
989  4
990  1
991  1
992  1
993  2
994  1
995  0
996  2
997  1
998  1
999  0
1000  1
1001  1
1002  1
1003  1
1004  1
1005  2
1006  0
1007  3
1008  4
1009  6
1010  9
1011  14
1012  20
1013  41
1014  47
1015  39
1016  54
1017  58
1018  64
1019  81
1020  85
1021  174
1022  278
1023  1106
