0  2038
1  1987
2  3616
3  8563
4  24569
5  54810
6  71710
7  44090
8  18645
9  6241
10  3085
11  1971
12  1355
13  979
14  667
15  462
16  373
17  269
18  240
19  182
20  147
21  118
22  91
23  76
24  78
25  63
26  45
27  40
28  38
29  36
30  25
31  20
32  23
33  16
34  19
35  12
36  19
37  13
38  15
39  8
40  10
41  9
42  8
43  12
44  3
45  9
46  18
47  13
48  9
49  3
50  10
51  11
52  11
53  7
54  11
55  13
56  12
57  10
58  10
59  12
60  4
61  12
62  9
63  11
64  17
65  15
66  22
67  43
68  66
69  135
70  312
71  553
72  718
73  788
74  847
75  880
76  862
77  840
78  919
79  822
80  848
81  857
82  860
83  880
84  874
85  878
86  841
87  871
88  950
89  921
90  888
91  912
92  890
93  917
94  905
95  885
96  963
97  963
98  964
99  960
100  979
101  966
102  951
103  909
104  937
105  931
106  919
107  926
108  880
109  854
110  853
111  796
112  797
113  786
114  762
115  733
116  739
117  692
118  680
119  697
120  708
121  682
122  665
123  679
124  607
125  627
126  606
127  560
128  608
129  593
130  603
131  513
132  559
133  551
134  534
135  473
136  535
137  473
138  506
139  446
140  461
141  410
142  445
143  434
144  454
145  436
146  442
147  372
148  427
149  452
150  430
151  414
152  380
153  424
154  405
155  381
156  399
157  397
158  416
159  434
160  403
161  385
162  392
163  382
164  372
165  362
166  372
167  338
168  326
169  325
170  356
171  315
172  332
173  325
174  331
175  283
176  292
177  271
178  254
179  257
180  249
181  220
182  216
183  212
184  206
185  199
186  203
187  196
188  185
189  161
190  176
191  185
192  180
193  157
194  175
195  149
196  162
197  161
198  156
199  152
200  145
201  143
202  120
203  139
204  147
205  147
206  128
207  134
208  123
209  153
210  143
211  142
212  110
213  153
214  139
215  134
216  148
217  158
218  169
219  150
220  147
221  174
222  161
223  171
224  163
225  158
226  181
227  174
228  207
229  222
230  208
231  214
232  242
233  245
234  261
235  264
236  302
237  326
238  322
239  338
240  373
241  407
242  418
243  479
244  470
245  536
246  561
247  564
248  651
249  662
250  699
251  750
252  833
253  791
254  855
255  802
256  927
257  928
258  881
259  927
260  929
261  911
262  922
263  857
264  900
265  833
266  821
267  751
268  707
269  664
270  624
271  524
272  584
273  460
274  495
275  463
276  387
277  326
278  292
279  288
280  278
281  229
282  180
283  179
284  153
285  135
286  110
287  96
288  118
289  83
290  77
291  93
292  60
293  65
294  74
295  64
296  63
297  68
298  48
299  58
300  70
301  65
302  55
303  49
304  46
305  55
306  47
307  47
308  54
309  55
310  41
311  40
312  56
313  47
314  40
315  52
316  45
317  48
318  46
319  44
320  44
321  53
322  43
323  38
324  53
325  45
326  45
327  53
328  52
329  60
330  39
331  41
332  46
333  38
334  51
335  38
336  55
337  56
338  45
339  46
340  60
341  51
342  51
343  38
344  43
345  40
346  46
347  45
348  52
349  49
350  49
351  36
352  52
353  32
354  44
355  45
356  45
357  48
358  46
359  48
360  37
361  39
362  49
363  52
364  46
365  58
366  40
367  40
368  32
369  46
370  45
371  40
372  51
373  38
374  62
375  48
376  48
377  62
378  41
379  36
380  37
381  43
382  43
383  48
384  34
385  46
386  46
387  41
388  69
389  41
390  39
391  41
392  42
393  47
394  45
395  48
396  45
397  55
398  48
399  41
400  55
401  43
402  44
403  37
404  49
405  43
406  46
407  49
408  39
409  46
410  44
411  49
412  46
413  54
414  55
415  60
416  46
417  51
418  45
419  50
420  44
421  40
422  40
423  43
424  49
425  55
426  42
427  40
428  50
429  45
430  65
431  39
432  48
433  46
434  54
435  46
436  44
437  49
438  46
439  41
440  58
441  41
442  49
443  46
444  36
445  39
446  51
447  40
448  44
449  46
450  53
451  49
452  46
453  40
454  53
455  45
456  42
457  50
458  52
459  49
460  47
461  55
462  44
463  37
464  52
465  67
466  51
467  40
468  60
469  55
470  53
471  44
472  49
473  35
474  49
475  56
476  40
477  48
478  50
479  49
480  51
481  51
482  61
483  45
484  69
485  45
486  42
487  51
488  45
489  58
490  51
491  51
492  66
493  56
494  45
495  56
496  58
497  53
498  57
499  48
500  46
501  40
502  42
503  47
504  52
505  60
506  41
507  47
508  43
509  46
510  55
511  42
512  44
513  44
514  33
515  38
516  49
517  27
518  29
519  26
520  43
521  53
522  38
523  32
524  44
525  33
526  28
527  36
528  30
529  23
530  34
531  22
532  28
533  27
534  20
535  26
536  25
537  21
538  23
539  29
540  22
541  13
542  15
543  21
544  16
545  20
546  21
547  21
548  17
549  19
550  22
551  14
552  21
553  15
554  21
555  12
556  16
557  24
558  6
559  17
560  27
561  25
562  24
563  23
564  14
565  17
566  25
567  22
568  14
569  20
570  29
571  22
572  22
573  23
574  22
575  22
576  29
577  32
578  34
579  33
580  34
581  28
582  30
583  37
584  44
585  41
586  46
587  28
588  41
589  37
590  41
591  38
592  39
593  37
594  33
595  42
596  49
597  54
598  43
599  67
600  57
601  50
602  56
603  48
604  58
605  53
606  55
607  84
608  75
609  74
610  83
611  67
612  75
613  66
614  66
615  71
616  67
617  86
618  77
619  83
620  79
621  99
622  76
623  90
624  71
625  68
626  83
627  73
628  59
629  69
630  58
631  75
632  66
633  68
634  65
635  64
636  52
637  46
638  46
639  46
640  45
641  32
642  40
643  31
644  36
645  34
646  33
647  31
648  26
649  27
650  20
651  24
652  21
653  26
654  21
655  16
656  14
657  23
658  15
659  14
660  10
661  11
662  11
663  6
664  13
665  7
666  8
667  5
668  6
669  6
670  6
671  9
672  7
673  4
674  5
675  0
676  2
677  2
678  2
679  6
680  6
681  6
682  3
683  2
684  2
685  3
686  6
687  3
688  2
689  6
690  5
691  3
692  2
693  3
694  1
695  3
696  4
697  0
698  6
699  2
700  2
701  1
702  3
703  1
704  4
705  1
706  4
707  1
708  2
709  2
710  1
711  6
712  4
713  2
714  3
715  2
716  4
717  1
718  0
719  1
720  4
721  5
722  1
723  3
724  3
725  1
726  1
727  6
728  4
729  0
730  0
731  0
732  3
733  2
734  3
735  2
736  4
737  0
738  1
739  2
740  2
741  3
742  1
743  0
744  1
745  0
746  1
747  1
748  1
749  1
750  1
751  2
752  3
753  2
754  0
755  0
756  2
757  1
758  0
759  1
760  2
761  1
762  2
763  1
764  0
765  0
766  0
767  0
768  1
769  0
770  1
771  2
772  0
773  0
774  1
775  0
776  4
777  0
778  0
779  1
780  2
781  0
782  1
783  2
784  1
785  0
786  2
787  2
788  0
789  1
790  1
791  2
792  1
793  1
794  2
795  2
796  3
797  0
798  0
799  1
800  1
801  4
802  1
803  0
804  1
805  3
806  2
807  3
808  2
809  6
810  7
811  8
812  10
813  16
814  13
815  17
816  95
817  54
818  41
819  0
820  0
821  0
822  0
823  0
824  0
825  0
826  0
827  0
828  0
829  0
830  0
831  0
832  0
833  0
834  0
835  0
836  0
837  0
838  0
839  0
840  0
841  0
842  0
843  0
844  0
845  0
846  0
847  0
848  0
849  0
850  0
851  0
852  0
853  0
854  0
855  0
856  0
857  0
858  0
859  0
860  0
861  0
862  0
863  0
864  0
865  0
866  0
867  0
868  0
869  0
870  0
871  0
872  0
873  0
874  0
875  0
876  0
877  0
878  0
879  0
880  0
881  0
882  0
883  0
884  0
885  0
886  0
887  0
888  0
889  0
890  0
891  0
892  0
893  0
894  0
895  0
896  0
897  0
898  0
899  0
900  0
901  0
902  0
903  0
904  0
905  0
906  0
907  0
908  0
909  0
910  0
911  0
912  0
913  0
914  0
915  0
916  0
917  0
918  0
919  0
920  0
921  0
922  0
923  0
924  0
925  0
926  0
927  0
928  0
929  0
930  0
931  0
932  0
933  0
934  0
935  0
936  0
937  0
938  0
939  0
940  0
941  0
942  0
943  1
944  1
945  1
946  1
947  2
948  1
949  4
950  2
951  0
952  0
953  1
954  0
955  1
956  0
957  0
958  1
959  0
960  0
961  1
962  1
963  0
964  1
965  1
966  1
967  0
968  0
969  0
970  0
971  1
972  1
973  1
974  2
975  1
976  3
977  2
978  1
979  1
980  0
981  0
982  0
983  1
984  0
985  2
986  0
987  0
988  2
989  1
990  0
991  0
992  1
993  1
994  0
995  2
996  1
997  2
998  1
999  0
1000  1
1001  1
1002  3
1003  1
1004  2
1005  0
1006  2
1007  1
1008  7
1009  7
1010  8
1011  25
1012  29
1013  39
1014  58
1015  55
1016  56
1017  82
1018  70
1019  93
1020  111
1021  167
1022  358
1023  1356
