0  336
1  354
2  584
3  1228
4  3837
5  9106
6  12705
7  8141
8  3367
9  1167
10  534
11  366
12  282
13  162
14  118
15  86
16  65
17  66
18  67
19  43
20  31
21  29
22  25
23  23
24  20
25  19
26  24
27  19
28  18
29  16
30  20
31  21
32  12
33  9
34  20
35  14
36  15
37  16
38  8
39  19
40  13
41  12
42  15
43  15
44  18
45  7
46  11
47  16
48  11
49  9
50  15
51  16
52  14
53  20
54  16
55  12
56  14
57  11
58  17
59  16
60  12
61  16
62  11
63  22
64  16
65  14
66  20
67  22
68  17
69  50
70  70
71  165
72  202
73  223
74  269
75  226
76  227
77  212
78  251
79  252
80  232
81  244
82  219
83  236
84  217
85  238
86  235
87  211
88  255
89  236
90  267
91  264
92  232
93  251
94  272
95  225
96  295
97  250
98  237
99  279
100  246
101  260
102  245
103  258
104  239
105  260
106  227
107  242
108  200
109  230
110  211
111  199
112  220
113  209
114  226
115  207
116  208
117  186
118  181
119  190
120  157
121  172
122  187
123  168
124  170
125  171
126  148
127  157
128  167
129  160
130  161
131  144
132  126
133  143
134  125
135  133
136  134
137  135
138  124
139  136
140  122
141  122
142  125
143  112
144  123
145  113
146  140
147  117
148  117
149  138
150  116
151  105
152  94
153  95
154  122
155  103
156  128
157  106
158  104
159  110
160  109
161  106
162  107
163  120
164  111
165  108
166  90
167  96
168  108
169  83
170  97
171  71
172  75
173  90
174  88
175  73
176  95
177  71
178  69
179  69
180  57
181  55
182  61
183  74
184  58
185  48
186  46
187  63
188  48
189  50
190  57
191  50
192  51
193  52
194  36
195  42
196  43
197  51
198  36
199  51
200  30
201  42
202  48
203  39
204  40
205  36
206  35
207  37
208  51
209  28
210  27
211  38
212  33
213  38
214  34
215  34
216  39
217  39
218  51
219  46
220  47
221  32
222  49
223  41
224  33
225  39
226  49
227  52
228  50
229  45
230  57
231  51
232  62
233  63
234  63
235  78
236  82
237  86
238  76
239  97
240  84
241  126
242  114
243  119
244  130
245  143
246  149
247  171
248  173
249  171
250  183
251  188
252  208
253  192
254  230
255  191
256  230
257  225
258  231
259  209
260  228
261  226
262  231
263  216
264  208
265  193
266  196
267  200
268  170
269  176
270  176
271  158
272  136
273  129
274  115
275  101
276  120
277  71
278  90
279  59
280  59
281  57
282  51
283  37
284  36
285  41
286  34
287  24
288  21
289  22
290  22
291  13
292  17
293  15
294  20
295  14
296  22
297  15
298  12
299  10
300  11
301  12
302  9
303  18
304  11
305  18
306  12
307  12
308  17
309  12
310  11
311  9
312  16
313  10
314  8
315  11
316  10
317  16
318  11
319  7
320  16
321  8
322  12
323  12
324  18
325  15
326  13
327  12
328  5
329  8
330  10
331  13
332  13
333  11
334  8
335  19
336  17
337  8
338  10
339  11
340  13
341  15
342  4
343  15
344  15
345  11
346  14
347  10
348  7
349  14
350  13
351  13
352  14
353  15
354  8
355  10
356  8
357  11
358  15
359  11
360  13
361  11
362  10
363  14
364  9
365  13
366  8
367  10
368  12
369  14
370  13
371  15
372  9
373  10
374  9
375  8
376  12
377  8
378  13
379  13
380  11
381  11
382  10
383  11
384  18
385  13
386  7
387  13
388  15
389  6
390  5
391  11
392  9
393  11
394  15
395  11
396  12
397  10
398  13
399  15
400  11
401  6
402  11
403  16
404  14
405  17
406  15
407  10
408  10
409  13
410  13
411  12
412  10
413  15
414  4
415  18
416  13
417  15
418  11
419  15
420  13
421  8
422  12
423  18
424  11
425  12
426  12
427  11
428  15
429  12
430  15
431  12
432  8
433  12
434  7
435  10
436  18
437  12
438  12
439  7
440  4
441  16
442  17
443  7
444  20
445  13
446  18
447  11
448  17
449  7
450  14
451  21
452  11
453  8
454  8
455  13
456  14
457  17
458  14
459  14
460  12
461  13
462  16
463  8
464  13
465  8
466  14
467  15
468  16
469  11
470  11
471  15
472  16
473  12
474  11
475  7
476  10
477  12
478  12
479  11
480  12
481  19
482  11
483  14
484  13
485  12
486  15
487  13
488  13
489  7
490  12
491  11
492  11
493  14
494  14
495  14
496  18
497  10
498  10
499  14
500  15
501  14
502  12
503  9
504  11
505  13
506  16
507  17
508  11
509  9
510  16
511  2
512  11
513  9
514  14
515  13
516  8
517  13
518  11
519  4
520  9
521  7
522  7
523  9
524  8
525  4
526  9
527  8
528  6
529  4
530  13
531  7
532  7
533  7
534  8
535  1
536  9
537  4
538  6
539  4
540  7
541  5
542  6
543  0
544  1
545  6
546  5
547  7
548  3
549  10
550  1
551  6
552  4
553  7
554  7
555  5
556  4
557  6
558  7
559  9
560  7
561  4
562  2
563  9
564  4
565  8
566  4
567  4
568  4
569  6
570  6
571  7
572  9
573  6
574  10
575  11
576  10
577  10
578  13
579  6
580  16
581  6
582  10
583  7
584  3
585  8
586  7
587  9
588  14
589  10
590  15
591  12
592  9
593  12
594  19
595  13
596  13
597  24
598  18
599  22
600  20
601  13
602  21
603  17
604  18
605  22
606  16
607  17
608  25
609  18
610  23
611  16
612  18
613  18
614  21
615  13
616  16
617  24
618  17
619  28
620  17
621  17
622  8
623  12
624  17
625  18
626  13
627  20
628  23
629  14
630  21
631  9
632  11
633  7
634  17
635  11
636  16
637  10
638  13
639  14
640  13
641  9
642  8
643  6
644  9
645  6
646  13
647  10
648  10
649  7
650  4
651  5
652  8
653  1
654  5
655  4
656  4
657  1
658  2
659  0
660  0
661  4
662  1
663  2
664  1
665  1
666  0
667  1
668  0
669  1
670  0
671  2
672  0
673  0
674  0
675  0
676  0
677  2
678  0
679  1
680  1
681  0
682  2
683  0
684  2
685  0
686  0
687  1
688  1
689  2
690  1
691  2
692  0
693  0
694  1
695  0
696  1
697  1
698  1
699  0
700  0
701  0
702  0
703  0
704  1
705  0
706  0
707  1
708  1
709  1
710  0
711  0
712  0
713  0
714  1
715  0
716  0
717  0
718  1
719  1
720  1
721  0
722  1
723  0
724  2
725  2
726  0
727  0
728  3
729  0
730  2
731  0
732  0
733  0
734  1
735  0
736  0
737  0
738  0
739  1
740  0
741  0
742  0
743  1
744  0
745  0
746  1
747  0
748  1
749  0
750  0
751  0
752  1
753  0
754  1
755  0
756  0
757  0
758  0
759  1
760  0
761  1
762  0
763  0
764  0
765  0
766  0
767  0
768  0
769  1
770  0
771  0
772  0
773  0
774  1
775  0
776  0
777  1
778  0
779  0
780  0
781  0
782  1
783  0
784  0
785  1
786  0
787  1
788  0
789  0
790  0
791  0
792  0
793  0
794  0
795  0
796  0
797  0
798  0
799  1
800  0
801  0
802  1
803  0
804  0
805  0
806  1
807  1
808  1
809  2
810  5
811  1
812  1
813  5
814  18
815  12
816  13
817  0
818  1
819  0
820  0
821  0
822  0
823  0
824  0
825  0
826  0
827  0
828  0
829  0
830  0
831  0
832  0
833  0
834  0
835  0
836  0
837  0
838  0
839  0
840  0
841  0
842  0
843  0
844  0
845  0
846  0
847  0
848  0
849  0
850  0
851  0
852  0
853  0
854  0
855  0
856  0
857  0
858  0
859  0
860  0
861  0
862  0
863  0
864  0
865  0
866  0
867  0
868  0
869  0
870  0
871  0
872  0
873  0
874  0
875  0
876  0
877  0
878  0
879  0
880  0
881  0
882  0
883  0
884  0
885  0
886  0
887  0
888  0
889  0
890  0
891  0
892  0
893  0
894  0
895  0
896  0
897  0
898  0
899  0
900  0
901  0
902  0
903  0
904  0
905  0
906  0
907  0
908  0
909  0
910  0
911  0
912  0
913  0
914  0
915  0
916  0
917  0
918  0
919  0
920  0
921  0
922  0
923  0
924  0
925  0
926  0
927  0
928  0
929  0
930  0
931  0
932  0
933  0
934  0
935  0
936  0
937  0
938  0
939  0
940  0
941  0
942  0
943  0
944  0
945  1
946  0
947  0
948  0
949  0
950  0
951  0
952  0
953  1
954  0
955  0
956  0
957  0
958  0
959  0
960  0
961  0
962  0
963  0
964  0
965  0
966  0
967  0
968  0
969  0
970  0
971  0
972  1
973  0
974  0
975  1
976  0
977  0
978  0
979  0
980  0
981  1
982  0
983  0
984  1
985  0
986  0
987  0
988  0
989  0
990  1
991  1
992  0
993  0
994  0
995  0
996  0
997  1
998  0
999  0
1000  0
1001  0
1002  0
1003  1
1004  0
1005  2
1006  1
1007  0
1008  0
1009  2
1010  0
1011  0
1012  1
1013  4
1014  1
1015  3
1016  8
1017  16
1018  10
1019  7
1020  22
1021  27
1022  64
1023  264
