0  405
1  271
2  577
3  1154
4  2392
5  4828
6  8418
7  11944
8  14125
9  10509
10  6236
11  3271
12  1594
13  759
14  370
15  216
16  128
17  118
18  48
19  76
20  59
21  66
22  67
23  70
24  66
25  58
26  86
27  56
28  65
29  78
30  64
31  70
32  59
33  71
34  75
35  58
36  64
37  58
38  67
39  68
40  53
41  84
42  70
43  60
44  68
45  67
46  74
47  79
48  62
49  44
50  47
51  24
52  28
53  34
54  71
55  135
56  277
57  436
58  607
59  700
60  796
61  838
62  751
63  766
64  894
65  872
66  891
67  842
68  833
69  879
70  849
71  847
72  860
73  850
74  902
75  824
76  906
77  881
78  881
79  850
80  896
81  876
82  910
83  904
84  959
85  903
86  957
87  839
88  952
89  948
90  978
91  833
92  915
93  945
94  947
95  893
96  950
97  942
98  978
99  939
100  983
101  977
102  1003
103  887
104  985
105  969
106  974
107  981
108  983
109  1048
110  985
111  936
112  1017
113  1004
114  938
115  923
116  948
117  958
118  941
119  975
120  958
121  941
122  906
123  899
124  823
125  873
126  840
127  814
128  866
129  851
130  799
131  765
132  800
133  786
134  724
135  763
136  796
137  758
138  732
139  704
140  728
141  716
142  711
143  667
144  645
145  655
146  668
147  599
148  642
149  649
150  638
151  600
152  611
153  586
154  584
155  594
156  582
157  542
158  543
159  511
160  579
161  518
162  488
163  489
164  541
165  491
166  530
167  502
168  534
169  498
170  468
171  437
172  448
173  464
174  468
175  426
176  436
177  476
178  448
179  422
180  430
181  414
182  382
183  402
184  427
185  428
186  387
187  378
188  424
189  360
190  382
191  352
192  371
193  310
194  385
195  364
196  325
197  336
198  336
199  323
200  331
201  310
202  310
203  286
204  311
205  302
206  285
207  272
208  294
209  264
210  261
211  242
212  248
213  237
214  240
215  230
216  222
217  236
218  191
219  222
220  212
221  219
222  205
223  195
224  186
225  205
226  198
227  201
228  194
229  165
230  191
231  195
232  196
233  173
234  178
235  184
236  180
237  207
238  208
239  192
240  215
241  194
242  212
243  206
244  224
245  228
246  233
247  226
248  239
249  244
250  273
251  276
252  278
253  337
254  334
255  323
256  424
257  411
258  470
259  480
260  479
261  539
262  545
263  544
264  616
265  651
266  695
267  664
268  732
269  708
270  760
271  731
272  805
273  788
274  867
275  850
276  909
277  915
278  911
279  891
280  975
281  933
282  909
283  936
284  950
285  920
286  905
287  833
288  879
289  852
290  804
291  750
292  807
293  799
294  757
295  771
296  721
297  677
298  658
299  645
300  637
301  597
302  572
303  566
304  542
305  485
306  507
307  465
308  446
309  455
310  406
311  400
312  383
313  346
314  320
315  318
316  293
317  266
318  304
319  274
320  258
321  260
322  218
323  197
324  202
325  204
326  173
327  172
328  173
329  198
330  162
331  159
332  141
333  144
334  137
335  111
336  110
337  133
338  104
339  128
340  119
341  118
342  118
343  98
344  86
345  85
346  92
347  85
348  84
349  76
350  85
351  78
352  76
353  71
354  80
355  80
356  66
357  81
358  79
359  84
360  78
361  66
362  67
363  73
364  77
365  74
366  78
367  73
368  64
369  59
370  71
371  60
372  72
373  69
374  72
375  58
376  59
377  64
378  66
379  55
380  67
381  58
382  72
383  62
384  62
385  54
386  77
387  63
388  54
389  64
390  84
391  55
392  75
393  68
394  62
395  61
396  58
397  70
398  56
399  52
400  48
401  56
402  57
403  54
404  62
405  70
406  76
407  65
408  72
409  67
410  65
411  72
412  60
413  56
414  80
415  52
416  63
417  52
418  54
419  47
420  56
421  77
422  72
423  67
424  54
425  55
426  71
427  53
428  58
429  62
430  66
431  53
432  57
433  79
434  57
435  60
436  54
437  59
438  51
439  54
440  58
441  78
442  49
443  63
444  61
445  67
446  76
447  57
448  62
449  41
450  59
451  61
452  59
453  68
454  65
455  79
456  84
457  74
458  75
459  66
460  72
461  62
462  70
463  55
464  61
465  65
466  70
467  60
468  41
469  70
470  55
471  64
472  59
473  76
474  69
475  56
476  83
477  71
478  76
479  67
480  64
481  73
482  69
483  66
484  73
485  79
486  56
487  74
488  75
489  69
490  65
491  58
492  62
493  63
494  68
495  65
496  70
497  71
498  51
499  38
500  67
501  76
502  72
503  55
504  53
505  63
506  74
507  69
508  60
509  71
510  61
511  38
512  60
513  69
514  75
515  67
516  52
517  62
518  59
519  51
520  61
521  56
522  62
523  51
524  75
525  53
526  51
527  53
528  66
529  56
530  57
531  50
532  59
533  70
534  61
535  57
536  56
537  44
538  49
539  49
540  56
541  59
542  54
543  62
544  60
545  43
546  48
547  49
548  47
549  56
550  51
551  47
552  47
553  40
554  56
555  45
556  44
557  47
558  48
559  33
560  51
561  50
562  52
563  58
564  42
565  50
566  48
567  48
568  35
569  54
570  40
571  41
572  41
573  40
574  45
575  49
576  39
577  35
578  51
579  36
580  37
581  45
582  35
583  44
584  36
585  42
586  48
587  37
588  32
589  50
590  40
591  49
592  49
593  37
594  50
595  28
596  42
597  38
598  40
599  42
600  36
601  29
602  38
603  41
604  47
605  44
606  43
607  43
608  44
609  43
610  43
611  52
612  38
613  29
614  37
615  46
616  55
617  64
618  42
619  38
620  52
621  52
622  48
623  51
624  78
625  50
626  55
627  86
628  70
629  67
630  69
631  63
632  71
633  86
634  71
635  99
636  74
637  75
638  79
639  74
640  60
641  80
642  94
643  86
644  83
645  85
646  80
647  94
648  90
649  100
650  93
651  92
652  103
653  135
654  93
655  114
656  97
657  110
658  97
659  98
660  104
661  105
662  111
663  107
664  94
665  101
666  101
667  109
668  112
669  85
670  104
671  114
672  103
673  91
674  105
675  90
676  93
677  94
678  98
679  90
680  96
681  86
682  81
683  95
684  70
685  88
686  74
687  83
688  66
689  64
690  78
691  61
692  55
693  70
694  62
695  61
696  68
697  57
698  57
699  68
700  65
701  60
702  67
703  62
704  54
705  55
706  59
707  54
708  45
709  54
710  40
711  42
712  38
713  54
714  39
715  48
716  38
717  38
718  42
719  39
720  48
721  35
722  31
723  34
724  23
725  36
726  31
727  36
728  24
729  38
730  23
731  25
732  28
733  20
734  23
735  21
736  18
737  33
738  25
739  25
740  19
741  17
742  19
743  18
744  10
745  17
746  26
747  22
748  27
749  17
750  25
751  12
752  17
753  26
754  12
755  17
756  16
757  17
758  12
759  14
760  18
761  7
762  15
763  10
764  13
765  9
766  17
767  7
768  11
769  5
770  13
771  16
772  13
773  6
774  7
775  7
776  8
777  13
778  8
779  4
780  4
781  11
782  7
783  5
784  8
785  9
786  4
787  6
788  6
789  4
790  11
791  7
792  0
793  9
794  7
795  4
796  6
797  4
798  1
799  3
800  0
801  4
802  6
803  5
804  5
805  6
806  5
807  4
808  1
809  2
810  2
811  6
812  3
813  3
814  4
815  5
816  10
817  9
818  9
819  1
820  9
821  4
822  3
823  7
824  4
825  3
826  3
827  4
828  5
829  9
830  4
831  12
832  7
833  13
834  15
835  26
836  24
837  36
838  48
839  44
840  34
841  45
842  39
843  138
844  99
845  116
846  48
847  0
848  0
849  0
850  0
851  0
852  0
853  0
854  0
855  0
856  0
857  0
858  0
859  0
860  0
861  0
862  0
863  0
864  0
865  0
866  0
867  0
868  0
869  0
870  0
871  0
872  0
873  0
874  0
875  0
876  0
877  0
878  0
879  0
880  0
881  0
882  0
883  0
884  0
885  0
886  0
887  0
888  0
889  0
890  0
891  0
892  0
893  0
894  0
895  0
896  0
897  0
898  0
899  0
900  0
901  0
902  0
903  0
904  0
905  0
906  0
907  0
908  0
909  0
910  0
911  0
912  0
913  0
914  0
915  0
916  0
917  0
918  0
919  0
920  0
921  0
922  0
923  0
924  0
925  0
926  0
927  0
928  0
929  0
930  0
931  0
932  0
933  0
934  0
935  0
936  0
937  0
938  0
939  0
940  1
941  0
942  0
943  0
944  0
945  0
946  0
947  0
948  0
949  0
950  0
951  0
952  0
953  0
954  0
955  0
956  0
957  0
958  0
959  0
960  1
961  0
962  0
963  0
964  0
965  1
966  0
967  1
968  0
969  0
970  0
971  0
972  1
973  0
974  0
975  1
976  0
977  0
978  0
979  0
980  0
981  0
982  0
983  2
984  0
985  0
986  0
987  0
988  0
989  0
990  1
991  0
992  0
993  0
994  1
995  0
996  0
997  0
998  0
999  0
1000  0
1001  0
1002  0
1003  0
1004  0
1005  0
1006  0
1007  0
1008  0
1009  0
1010  0
1011  0
1012  0
1013  0
1014  0
1015  0
1016  0
1017  0
1018  0
1019  0
1020  1
1021  1
1022  3
1023  16
