0  1221
1  1146
2  2054
3  4824
4  14160
5  33183
6  46036
7  30032
8  12861
9  4309
10  2050
11  1327
12  932
13  673
14  496
15  362
16  319
17  260
18  234
19  200
20  186
21  152
22  172
23  144
24  157
25  149
26  129
27  129
28  98
29  126
30  127
31  108
32  134
33  126
34  115
35  102
36  92
37  112
38  92
39  97
40  119
41  108
42  109
43  98
44  113
45  98
46  118
47  99
48  80
49  96
50  83
51  104
52  111
53  94
54  97
55  88
56  93
57  101
58  105
59  99
60  102
61  91
62  96
63  112
64  113
65  107
66  116
67  116
68  129
69  160
70  317
71  433
72  574
73  598
74  622
75  638
76  665
77  653
78  614
79  640
80  652
81  623
82  665
83  632
84  646
85  673
86  619
87  653
88  706
89  672
90  713
91  684
92  716
93  712
94  673
95  669
96  719
97  714
98  744
99  758
100  716
101  695
102  708
103  670
104  719
105  691
106  672
107  615
108  659
109  625
110  622
111  592
112  555
113  587
114  602
115  548
116  570
117  543
118  531
119  491
120  562
121  445
122  466
123  511
124  486
125  452
126  462
127  431
128  454
129  467
130  398
131  410
132  392
133  407
134  380
135  385
136  353
137  413
138  350
139  332
140  347
141  348
142  327
143  332
144  353
145  335
146  321
147  321
148  316
149  291
150  352
151  299
152  338
153  328
154  308
155  286
156  296
157  308
158  292
159  283
160  278
161  277
162  293
163  283
164  257
165  284
166  247
167  248
168  259
169  233
170  266
171  256
172  244
173  275
174  211
175  243
176  190
177  209
178  229
179  192
180  195
181  173
182  174
183  142
184  159
185  177
186  149
187  158
188  128
189  143
190  139
191  134
192  120
193  121
194  122
195  117
196  106
197  112
198  122
199  92
200  114
201  108
202  122
203  119
204  123
205  97
206  99
207  100
208  104
209  97
210  96
211  119
212  113
213  115
214  100
215  91
216  103
217  100
218  95
219  114
220  125
221  125
222  119
223  126
224  129
225  141
226  136
227  120
228  145
229  140
230  175
231  144
232  157
233  180
234  185
235  167
236  190
237  202
238  191
239  221
240  272
241  274
242  270
243  279
244  321
245  348
246  347
247  392
248  407
249  385
250  518
251  492
252  510
253  554
254  558
255  558
256  671
257  626
258  656
259  652
260  673
261  646
262  641
263  641
264  685
265  663
266  646
267  588
268  597
269  518
270  491
271  499
272  448
273  417
274  397
275  357
276  344
277  342
278  300
279  275
280  230
281  238
282  192
283  160
284  158
285  128
286  119
287  115
288  105
289  70
290  87
291  76
292  56
293  56
294  60
295  48
296  59
297  52
298  50
299  53
300  42
301  25
302  40
303  36
304  26
305  40
306  41
307  39
308  30
309  43
310  54
311  29
312  37
313  36
314  30
315  38
316  22
317  35
318  34
319  31
320  42
321  37
322  33
323  31
324  44
325  41
326  32
327  27
328  27
329  35
330  30
331  44
332  38
333  38
334  32
335  38
336  37
337  30
338  43
339  34
340  36
341  28
342  37
343  36
344  48
345  37
346  41
347  40
348  39
349  31
350  29
351  30
352  39
353  29
354  33
355  34
356  39
357  31
358  38
359  34
360  39
361  38
362  32
363  33
364  29
365  31
366  40
367  39
368  35
369  38
370  32
371  33
372  33
373  27
374  36
375  34
376  28
377  33
378  43
379  32
380  35
381  40
382  40
383  32
384  38
385  36
386  33
387  43
388  41
389  34
390  38
391  44
392  33
393  26
394  44
395  35
396  37
397  34
398  41
399  38
400  32
401  24
402  43
403  33
404  29
405  28
406  40
407  45
408  33
409  46
410  29
411  44
412  43
413  34
414  35
415  35
416  49
417  45
418  33
419  36
420  41
421  37
422  26
423  46
424  47
425  35
426  45
427  35
428  36
429  30
430  39
431  36
432  41
433  37
434  32
435  30
436  35
437  44
438  33
439  34
440  24
441  46
442  31
443  31
444  30
445  44
446  53
447  33
448  38
449  48
450  31
451  37
452  47
453  32
454  41
455  30
456  38
457  40
458  40
459  33
460  31
461  38
462  44
463  33
464  35
465  32
466  31
467  37
468  42
469  31
470  47
471  33
472  38
473  36
474  34
475  47
476  38
477  35
478  39
479  36
480  47
481  38
482  41
483  36
484  41
485  46
486  34
487  36
488  37
489  33
490  33
491  49
492  35
493  41
494  30
495  42
496  25
497  28
498  41
499  43
500  37
501  47
502  33
503  42
504  33
505  33
506  33
507  38
508  36
509  38
510  28
511  32
512  41
513  23
514  24
515  32
516  25
517  27
518  29
519  30
520  23
521  34
522  22
523  27
524  13
525  26
526  18
527  22
528  20
529  14
530  17
531  15
532  15
533  21
534  16
535  23
536  20
537  17
538  20
539  11
540  16
541  21
542  21
543  15
544  13
545  18
546  7
547  20
548  12
549  12
550  11
551  12
552  10
553  11
554  15
555  20
556  15
557  23
558  12
559  14
560  19
561  19
562  12
563  14
564  12
565  22
566  20
567  16
568  10
569  18
570  19
571  15
572  23
573  23
574  18
575  28
576  25
577  23
578  23
579  17
580  22
581  26
582  28
583  22
584  32
585  27
586  27
587  26
588  31
589  30
590  44
591  32
592  35
593  41
594  45
595  38
596  37
597  47
598  43
599  44
600  49
601  42
602  46
603  53
604  50
605  56
606  61
607  59
608  67
609  62
610  53
611  54
612  51
613  76
614  53
615  46
616  59
617  58
618  50
619  53
620  64
621  61
622  65
623  37
624  58
625  46
626  49
627  46
628  56
629  50
630  43
631  49
632  33
633  31
634  41
635  34
636  31
637  39
638  31
639  32
640  43
641  24
642  24
643  35
644  22
645  23
646  20
647  13
648  18
649  16
650  14
651  11
652  18
653  12
654  16
655  9
656  13
657  14
658  8
659  12
660  11
661  7
662  3
663  4
664  8
665  5
666  5
667  1
668  4
669  5
670  3
671  1
672  4
673  8
674  5
675  0
676  1
677  1
678  2
679  3
680  1
681  0
682  3
683  0
684  3
685  1
686  1
687  2
688  3
689  3
690  1
691  1
692  3
693  2
694  1
695  3
696  2
697  2
698  1
699  2
700  1
701  1
702  3
703  1
704  2
705  1
706  1
707  1
708  1
709  1
710  2
711  1
712  2
713  2
714  7
715  3
716  2
717  2
718  2
719  1
720  0
721  0
722  5
723  3
724  1
725  1
726  2
727  0
728  2
729  1
730  1
731  0
732  1
733  1
734  1
735  2
736  1
737  0
738  0
739  1
740  1
741  1
742  1
743  3
744  0
745  0
746  0
747  0
748  2
749  0
750  0
751  2
752  0
753  0
754  1
755  1
756  1
757  1
758  0
759  1
760  2
761  0
762  1
763  0
764  0
765  0
766  1
767  1
768  1
769  0
770  1
771  0
772  0
773  0
774  1
775  0
776  0
777  3
778  0
779  1
780  0
781  0
782  1
783  3
784  0
785  0
786  1
787  0
788  2
789  0
790  1
791  1
792  2
793  2
794  0
795  2
796  1
797  1
798  0
799  0
800  2
801  1
802  1
803  0
804  2
805  0
806  1
807  0
808  1
809  5
810  7
811  8
812  5
813  10
814  10
815  5
816  55
817  71
818  18
819  9
820  0
821  0
822  0
823  0
824  0
825  0
826  0
827  0
828  0
829  0
830  0
831  0
832  0
833  0
834  0
835  0
836  0
837  0
838  0
839  0
840  0
841  0
842  0
843  0
844  0
845  0
846  0
847  0
848  0
849  0
850  0
851  0
852  0
853  0
854  0
855  0
856  0
857  0
858  0
859  0
860  0
861  0
862  0
863  0
864  0
865  0
866  0
867  0
868  0
869  0
870  0
871  0
872  0
873  0
874  0
875  0
876  0
877  0
878  0
879  0
880  0
881  0
882  0
883  0
884  0
885  0
886  0
887  0
888  0
889  0
890  0
891  0
892  0
893  0
894  0
895  0
896  0
897  0
898  0
899  0
900  0
901  0
902  0
903  0
904  0
905  0
906  0
907  0
908  0
909  0
910  0
911  0
912  0
913  0
914  0
915  0
916  0
917  0
918  0
919  0
920  0
921  0
922  0
923  0
924  0
925  0
926  0
927  0
928  0
929  0
930  0
931  0
932  0
933  0
934  0
935  0
936  0
937  0
938  0
939  0
940  0
941  1
942  0
943  1
944  1
945  0
946  1
947  2
948  1
949  0
950  0
951  0
952  2
953  0
954  0
955  0
956  0
957  0
958  0
959  1
960  3
961  1
962  0
963  0
964  0
965  0
966  0
967  0
968  0
969  0
970  0
971  1
972  0
973  1
974  0
975  1
976  0
977  0
978  1
979  1
980  0
981  0
982  0
983  1
984  1
985  2
986  0
987  2
988  0
989  1
990  1
991  1
992  1
993  0
994  0
995  1
996  1
997  0
998  1
999  2
1000  0
1001  2
1002  0
1003  2
1004  1
1005  4
1006  2
1007  0
1008  2
1009  4
1010  3
1011  17
1012  12
1013  25
1014  24
1015  27
1016  34
1017  35
1018  38
1019  54
1020  68
1021  100
1022  168
1023  715
