0  98
1  143
2  285
3  657
4  2168
5  5919
6  8645
7  5717
8  2262
9  643
10  253
11  132
12  80
13  31
14  14
15  9
16  11
17  2
18  0
19  5
20  2
21  3
22  4
23  5
24  1
25  1
26  3
27  1
28  0
29  2
30  0
31  2
32  0
33  0
34  0
35  0
36  1
37  0
38  0
39  0
40  0
41  0
42  0
43  0
44  0
45  0
46  0
47  1
48  0
49  0
50  0
51  0
52  0
53  0
54  0
55  2
56  0
57  0
58  0
59  0
60  1
61  0
62  0
63  2
64  0
65  1
66  2
67  7
68  11
69  16
70  45
71  59
72  136
73  109
74  142
75  131
76  135
77  144
78  118
79  107
80  107
81  118
82  110
83  112
84  107
85  123
86  110
87  102
88  95
89  113
90  92
91  91
92  100
93  78
94  101
95  79
96  94
97  118
98  94
99  91
100  94
101  97
102  89
103  70
104  75
105  92
106  86
107  78
108  70
109  64
110  74
111  68
112  80
113  69
114  74
115  64
116  73
117  75
118  72
119  73
120  73
121  66
122  68
123  65
124  57
125  68
126  58
127  53
128  55
129  49
130  45
131  43
132  56
133  40
134  43
135  49
136  42
137  47
138  33
139  48
140  40
141  37
142  38
143  27
144  46
145  41
146  29
147  33
148  29
149  33
150  37
151  41
152  28
153  29
154  34
155  32
156  22
157  28
158  34
159  26
160  24
161  29
162  33
163  20
164  25
165  26
166  25
167  23
168  30
169  26
170  29
171  33
172  32
173  20
174  28
175  23
176  16
177  21
178  24
179  17
180  32
181  16
182  20
183  20
184  28
185  19
186  20
187  23
188  26
189  23
190  19
191  24
192  18
193  19
194  24
195  16
196  21
197  18
198  19
199  19
200  13
201  16
202  18
203  22
204  10
205  19
206  16
207  13
208  16
209  15
210  19
211  17
212  11
213  15
214  15
215  7
216  12
217  8
218  16
219  11
220  14
221  19
222  9
223  17
224  16
225  17
226  15
227  15
228  16
229  14
230  6
231  8
232  11
233  9
234  14
235  11
236  16
237  12
238  10
239  13
240  9
241  15
242  18
243  8
244  10
245  8
246  5
247  8
248  11
249  10
250  4
251  11
252  11
253  7
254  6
255  13
256  7
257  5
258  9
259  12
260  5
261  10
262  7
263  10
264  13
265  8
266  8
267  12
268  11
269  9
270  3
271  7
272  9
273  5
274  5
275  4
276  8
277  11
278  2
279  7
280  12
281  7
282  8
283  10
284  3
285  7
286  8
287  3
288  4
289  7
290  8
291  4
292  9
293  5
294  7
295  4
296  10
297  13
298  11
299  13
300  9
301  7
302  12
303  11
304  9
305  8
306  9
307  14
308  5
309  10
310  23
311  9
312  12
313  15
314  11
315  20
316  8
317  21
318  14
319  22
320  11
321  18
322  15
323  23
324  17
325  17
326  15
327  17
328  17
329  14
330  15
331  16
332  24
333  14
334  19
335  15
336  21
337  20
338  20
339  14
340  15
341  17
342  11
343  13
344  20
345  12
346  7
347  9
348  16
349  12
350  9
351  7
352  15
353  3
354  7
355  9
356  3
357  5
358  4
359  3
360  4
361  4
362  6
363  4
364  4
365  1
366  2
367  4
368  2
369  3
370  3
371  3
372  5
373  1
374  1
375  4
376  2
377  1
378  2
379  2
380  2
381  3
382  4
383  2
384  4
385  5
386  3
387  2
388  2
389  4
390  3
391  2
392  2
393  1
394  3
395  1
396  4
397  4
398  1
399  1
400  1
401  5
402  5
403  3
404  3
405  3
406  1
407  1
408  1
409  3
410  2
411  3
412  4
413  2
414  2
415  3
416  0
417  0
418  0
419  2
420  3
421  2
422  3
423  2
424  3
425  2
426  1
427  1
428  2
429  2
430  1
431  1
432  2
433  1
434  1
435  1
436  2
437  1
438  1
439  3
440  4
441  2
442  3
443  0
444  1
445  2
446  1
447  1
448  1
449  6
450  2
451  1
452  2
453  3
454  0
455  0
456  1
457  0
458  3
459  1
460  4
461  1
462  0
463  0
464  2
465  2
466  1
467  0
468  5
469  0
470  1
471  1
472  0
473  3
474  0
475  1
476  2
477  3
478  3
479  0
480  2
481  3
482  0
483  5
484  1
485  4
486  1
487  1
488  3
489  2
490  3
491  1
492  3
493  1
494  4
495  2
496  1
497  2
498  1
499  0
500  0
501  2
502  1
503  2
504  1
505  1
506  2
507  0
508  2
509  0
510  4
511  0
512  0
513  2
514  2
515  1
516  0
517  2
518  0
519  1
520  1
521  3
522  2
523  3
524  5
525  3
526  1
527  2
528  1
529  1
530  1
531  0
532  2
533  2
534  3
535  0
536  1
537  0
538  1
539  3
540  1
541  1
542  1
543  1
544  4
545  3
546  2
547  0
548  0
549  2
550  4
551  2
552  0
553  2
554  0
555  0
556  0
557  1
558  3
559  0
560  1
561  4
562  1
563  1
564  0
565  0
566  2
567  0
568  1
569  3
570  1
571  3
572  1
573  2
574  2
575  2
576  0
577  1
578  2
579  0
580  1
581  0
582  1
583  1
584  2
585  0
586  0
587  0
588  0
589  0
590  0
591  0
592  2
593  2
594  1
595  1
596  0
597  0
598  3
599  0
600  1
601  2
602  1
603  1
604  0
605  1
606  0
607  0
608  2
609  0
610  1
611  1
612  0
613  0
614  0
615  2
616  2
617  1
618  1
619  1
620  1
621  0
622  1
623  1
624  0
625  3
626  0
627  2
628  1
629  1
630  2
631  3
632  1
633  2
634  1
635  1
636  1
637  0
638  2
639  3
640  1
641  1
642  1
643  0
644  0
645  3
646  2
647  2
648  2
649  1
650  2
651  1
652  0
653  0
654  0
655  1
656  0
657  0
658  2
659  1
660  0
661  1
662  1
663  2
664  0
665  1
666  2
667  0
668  0
669  0
670  0
671  0
672  0
673  1
674  0
675  1
676  0
677  1
678  1
679  2
680  2
681  1
682  1
683  1
684  0
685  1
686  2
687  2
688  0
689  3
690  1
691  1
692  2
693  2
694  0
695  0
696  3
697  3
698  0
699  0
700  0
701  2
702  1
703  1
704  0
705  0
706  0
707  0
708  1
709  1
710  3
711  2
712  1
713  1
714  2
715  0
716  1
717  1
718  2
719  0
720  1
721  2
722  0
723  0
724  0
725  0
726  0
727  0
728  1
729  1
730  1
731  0
732  0
733  1
734  0
735  0
736  1
737  0
738  1
739  0
740  1
741  0
742  0
743  1
744  0
745  0
746  1
747  0
748  0
749  1
750  0
751  0
752  0
753  0
754  0
755  1
756  0
757  0
758  1
759  0
760  0
761  0
762  1
763  0
764  0
765  0
766  0
767  0
768  1
769  0
770  0
771  0
772  0
773  0
774  1
775  0
776  0
777  0
778  0
779  0
780  0
781  0
782  0
783  1
784  0
785  0
786  0
787  0
788  0
789  1
790  0
791  0
792  0
793  0
794  0
795  0
796  0
797  0
798  0
799  0
800  1
801  0
802  1
803  0
804  0
805  0
806  0
807  0
808  1
809  0
810  2
811  6
812  7
813  4
814  8
815  5
816  40
817  54
818  21
819  5
820  0
821  0
822  0
823  0
824  0
825  0
826  0
827  0
828  0
829  0
830  0
831  0
832  0
833  0
834  0
835  0
836  0
837  0
838  0
839  0
840  0
841  0
842  0
843  0
844  0
845  0
846  0
847  0
848  0
849  0
850  0
851  0
852  0
853  0
854  0
855  0
856  0
857  0
858  0
859  0
860  0
861  0
862  0
863  0
864  0
865  0
866  0
867  0
868  0
869  0
870  0
871  0
872  0
873  0
874  0
875  0
876  0
877  0
878  0
879  0
880  0
881  0
882  0
883  0
884  0
885  0
886  0
887  0
888  0
889  0
890  0
891  0
892  0
893  0
894  0
895  0
896  0
897  0
898  0
899  0
900  0
901  0
902  0
903  0
904  0
905  0
906  0
907  0
908  0
909  0
910  0
911  0
912  0
913  0
914  0
915  0
916  0
917  0
918  0
919  0
920  0
921  0
922  0
923  0
924  0
925  0
926  0
927  0
928  0
929  0
930  0
931  0
932  0
933  0
934  0
935  0
936  0
937  0
938  0
939  0
940  0
941  0
942  0
943  0
944  0
945  0
946  0
947  0
948  0
949  0
950  0
951  0
952  0
953  0
954  0
955  0
956  0
957  1
958  0
959  0
960  0
961  0
962  0
963  1
964  0
965  1
966  0
967  0
968  0
969  0
970  0
971  0
972  0
973  0
974  1
975  0
976  0
977  0
978  0
979  0
980  1
981  0
982  0
983  0
984  0
985  0
986  0
987  0
988  0
989  1
990  0
991  0
992  0
993  0
994  0
995  0
996  1
997  0
998  0
999  0
1000  0
1001  1
1002  0
1003  0
1004  1
1005  0
1006  0
1007  0
1008  0
1009  0
1010  0
1011  0
1012  2
1013  3
1014  0
1015  1
1016  2
1017  1
1018  0
1019  5
1020  4
1021  10
1022  12
1023  112
