0  543
1  392
2  797
3  1629
4  3269
5  6298
6  11344
7  16067
8  18683
9  14068
10  8288
11  4070
12  2090
13  999
14  507
15  304
16  191
17  149
18  116
19  90
20  88
21  74
22  90
23  78
24  95
25  106
26  88
27  100
28  67
29  96
30  82
31  90
32  97
33  82
34  99
35  96
36  97
37  87
38  92
39  96
40  83
41  78
42  94
43  92
44  93
45  91
46  90
47  94
48  102
49  83
50  60
51  43
52  33
53  53
54  105
55  167
56  361
57  590
58  796
59  902
60  995
61  1039
62  1085
63  1040
64  1161
65  1112
66  1159
67  1106
68  1132
69  1131
70  1190
71  1157
72  1230
73  1157
74  1118
75  1180
76  1231
77  1165
78  1190
79  1160
80  1197
81  1249
82  1236
83  1153
84  1232
85  1216
86  1256
87  1156
88  1216
89  1257
90  1269
91  1168
92  1212
93  1288
94  1340
95  1219
96  1235
97  1274
98  1229
99  1241
100  1269
101  1221
102  1279
103  1186
104  1354
105  1261
106  1333
107  1296
108  1340
109  1271
110  1266
111  1266
112  1372
113  1269
114  1273
115  1271
116  1326
117  1259
118  1249
119  1252
120  1242
121  1238
122  1216
123  1169
124  1155
125  1157
126  1186
127  1048
128  1131
129  1072
130  1094
131  1022
132  1080
133  1008
134  1038
135  913
136  1084
137  977
138  980
139  980
140  942
141  936
142  970
143  875
144  907
145  868
146  884
147  832
148  828
149  798
150  819
151  788
152  785
153  746
154  777
155  738
156  739
157  781
158  690
159  708
160  710
161  689
162  636
163  684
164  685
165  651
166  685
167  674
168  639
169  670
170  718
171  619
172  601
173  636
174  643
175  592
176  627
177  574
178  603
179  569
180  576
181  562
182  570
183  518
184  530
185  539
186  519
187  501
188  497
189  509
190  496
191  514
192  522
193  480
194  460
195  469
196  469
197  438
198  404
199  429
200  398
201  387
202  402
203  395
204  392
205  362
206  329
207  324
208  361
209  349
210  312
211  332
212  322
213  337
214  320
215  317
216  304
217  292
218  264
219  255
220  289
221  262
222  259
223  252
224  263
225  244
226  254
227  208
228  260
229  242
230  244
231  240
232  262
233  264
234  232
235  247
236  250
237  276
238  253
239  243
240  273
241  242
242  254
243  287
244  305
245  317
246  298
247  316
248  336
249  323
250  341
251  431
252  444
253  444
254  475
255  429
256  556
257  539
258  605
259  613
260  652
261  708
262  737
263  760
264  835
265  813
266  866
267  945
268  896
269  1002
270  980
271  1016
272  1123
273  1061
274  1149
275  1157
276  1119
277  1256
278  1251
279  1184
280  1252
281  1256
282  1204
283  1221
284  1221
285  1180
286  1184
287  1127
288  1231
289  1173
290  1150
291  1143
292  1013
293  1093
294  1040
295  1019
296  932
297  951
298  936
299  850
300  879
301  737
302  796
303  680
304  705
305  687
306  668
307  678
308  673
309  576
310  530
311  532
312  528
313  500
314  488
315  431
316  413
317  372
318  368
319  341
320  365
321  328
322  319
323  297
324  256
325  294
326  240
327  225
328  207
329  225
330  203
331  218
332  206
333  207
334  219
335  156
336  160
337  151
338  129
339  166
340  154
341  137
342  135
343  132
344  130
345  131
346  106
347  123
348  116
349  116
350  111
351  105
352  91
353  111
354  103
355  89
356  105
357  103
358  100
359  102
360  87
361  95
362  114
363  101
364  90
365  80
366  92
367  83
368  101
369  90
370  88
371  94
372  94
373  83
374  91
375  66
376  86
377  77
378  82
379  93
380  83
381  77
382  87
383  81
384  96
385  108
386  79
387  82
388  93
389  84
390  96
391  82
392  98
393  104
394  84
395  75
396  85
397  85
398  81
399  81
400  75
401  67
402  82
403  64
404  96
405  74
406  91
407  74
408  88
409  95
410  86
411  89
412  84
413  88
414  82
415  83
416  80
417  79
418  65
419  68
420  76
421  71
422  83
423  82
424  88
425  87
426  83
427  106
428  73
429  87
430  94
431  86
432  93
433  82
434  77
435  81
436  90
437  78
438  66
439  70
440  80
441  86
442  84
443  87
444  88
445  79
446  79
447  83
448  68
449  79
450  69
451  86
452  79
453  85
454  91
455  84
456  84
457  89
458  82
459  75
460  94
461  69
462  93
463  99
464  88
465  86
466  104
467  89
468  94
469  96
470  76
471  89
472  90
473  94
474  93
475  75
476  83
477  70
478  92
479  98
480  80
481  105
482  80
483  77
484  83
485  103
486  82
487  79
488  83
489  74
490  85
491  93
492  74
493  92
494  87
495  83
496  99
497  82
498  91
499  88
500  73
501  100
502  100
503  87
504  94
505  105
506  74
507  78
508  87
509  77
510  81
511  81
512  99
513  72
514  85
515  76
516  99
517  75
518  84
519  79
520  90
521  82
522  93
523  76
524  88
525  89
526  82
527  80
528  77
529  78
530  77
531  81
532  70
533  71
534  86
535  65
536  81
537  74
538  62
539  65
540  81
541  77
542  73
543  73
544  62
545  66
546  77
547  62
548  73
549  62
550  68
551  72
552  65
553  53
554  59
555  64
556  57
557  59
558  70
559  66
560  69
561  56
562  63
563  71
564  52
565  56
566  53
567  62
568  57
569  77
570  61
571  56
572  47
573  68
574  59
575  60
576  57
577  52
578  47
579  49
580  47
581  49
582  52
583  50
584  53
585  53
586  45
587  50
588  60
589  49
590  55
591  58
592  57
593  52
594  57
595  62
596  53
597  49
598  50
599  46
600  54
601  47
602  56
603  47
604  54
605  58
606  62
607  63
608  53
609  66
610  56
611  62
612  73
613  61
614  58
615  69
616  44
617  62
618  71
619  66
620  65
621  70
622  56
623  74
624  81
625  87
626  69
627  89
628  89
629  84
630  93
631  77
632  86
633  97
634  97
635  89
636  94
637  126
638  119
639  101
640  109
641  114
642  117
643  121
644  136
645  107
646  112
647  125
648  130
649  127
650  136
651  127
652  132
653  117
654  136
655  137
656  145
657  136
658  158
659  148
660  153
661  147
662  130
663  120
664  134
665  146
666  150
667  113
668  152
669  139
670  112
671  155
672  108
673  129
674  125
675  110
676  145
677  139
678  109
679  108
680  117
681  114
682  104
683  93
684  103
685  109
686  123
687  114
688  123
689  107
690  109
691  90
692  106
693  98
694  87
695  95
696  79
697  98
698  83
699  98
700  78
701  83
702  68
703  70
704  82
705  64
706  77
707  74
708  71
709  60
710  67
711  59
712  62
713  54
714  58
715  64
716  55
717  52
718  53
719  47
720  48
721  45
722  46
723  50
724  37
725  53
726  42
727  33
728  36
729  47
730  44
731  29
732  40
733  39
734  36
735  44
736  35
737  31
738  38
739  23
740  30
741  23
742  25
743  29
744  20
745  27
746  27
747  22
748  24
749  36
750  23
751  22
752  14
753  17
754  21
755  14
756  20
757  19
758  19
759  17
760  21
761  15
762  10
763  20
764  15
765  9
766  13
767  10
768  14
769  12
770  13
771  7
772  15
773  8
774  12
775  15
776  16
777  12
778  9
779  14
780  10
781  11
782  7
783  15
784  9
785  12
786  6
787  9
788  12
789  11
790  7
791  4
792  13
793  5
794  9
795  6
796  9
797  8
798  9
799  4
800  6
801  4
802  5
803  6
804  8
805  5
806  9
807  3
808  7
809  4
810  3
811  7
812  9
813  7
814  6
815  4
816  13
817  6
818  5
819  3
820  6
821  10
822  6
823  3
824  4
825  6
826  2
827  5
828  9
829  7
830  9
831  13
832  11
833  16
834  15
835  31
836  33
837  59
838  61
839  60
840  42
841  44
842  57
843  186
844  130
845  158
846  85
847  0
848  0
849  0
850  0
851  0
852  0
853  0
854  0
855  0
856  0
857  0
858  0
859  0
860  0
861  0
862  0
863  0
864  0
865  0
866  0
867  0
868  0
869  0
870  0
871  0
872  0
873  0
874  0
875  0
876  0
877  0
878  0
879  0
880  0
881  0
882  0
883  0
884  0
885  0
886  0
887  0
888  0
889  0
890  0
891  0
892  0
893  0
894  0
895  0
896  0
897  0
898  0
899  0
900  0
901  0
902  0
903  0
904  0
905  0
906  0
907  0
908  0
909  0
910  0
911  0
912  0
913  0
914  0
915  0
916  0
917  0
918  0
919  0
920  0
921  0
922  0
923  0
924  0
925  0
926  0
927  0
928  0
929  0
930  0
931  0
932  0
933  0
934  0
935  0
936  0
937  0
938  0
939  0
940  0
941  0
942  0
943  0
944  0
945  0
946  0
947  0
948  0
949  0
950  0
951  0
952  0
953  0
954  0
955  0
956  0
957  0
958  0
959  0
960  1
961  0
962  0
963  1
964  0
965  0
966  0
967  0
968  1
969  1
970  0
971  1
972  0
973  0
974  1
975  0
976  0
977  1
978  0
979  0
980  1
981  1
982  0
983  0
984  0
985  0
986  1
987  0
988  2
989  1
990  0
991  0
992  0
993  0
994  0
995  0
996  2
997  0
998  0
999  0
1000  0
1001  1
1002  0
1003  0
1004  0
1005  0
1006  0
1007  0
1008  0
1009  0
1010  0
1011  0
1012  1
1013  1
1014  0
1015  0
1016  2
1017  1
1018  1
1019  2
1020  4
1021  2
1022  5
1023  37
