0  2106
1  1934
2  3520
3  8414
4  24594
5  54114
6  71659
7  44898
8  18963
9  6434
10  3294
11  1916
12  1292
13  913
14  664
15  438
16  358
17  293
18  199
19  175
20  166
21  139
22  105
23  88
24  86
25  64
26  60
27  71
28  39
29  32
30  35
31  26
32  27
33  30
34  21
35  8
36  9
37  10
38  7
39  12
40  14
41  24
42  10
43  9
44  9
45  8
46  12
47  6
48  7
49  5
50  8
51  6
52  9
53  11
54  10
55  10
56  11
57  9
58  6
59  11
60  13
61  13
62  16
63  17
64  10
65  20
66  26
67  42
68  68
69  127
70  283
71  578
72  744
73  839
74  843
75  836
76  818
77  866
78  873
79  786
80  798
81  842
82  891
83  822
84  866
85  878
86  868
87  839
88  855
89  848
90  864
91  908
92  943
93  941
94  922
95  908
96  950
97  974
98  969
99  855
100  1048
101  951
102  929
103  923
104  906
105  898
106  904
107  991
108  887
109  868
110  822
111  809
112  803
113  790
114  758
115  717
116  771
117  719
118  751
119  709
120  688
121  695
122  692
123  669
124  655
125  614
126  599
127  556
128  657
129  567
130  582
131  568
132  519
133  546
134  551
135  520
136  540
137  478
138  484
139  508
140  502
141  491
142  471
143  445
144  461
145  428
146  456
147  424
148  418
149  404
150  380
151  390
152  476
153  433
154  403
155  395
156  450
157  432
158  344
159  339
160  403
161  367
162  374
163  366
164  411
165  394
166  304
167  342
168  349
169  369
170  329
171  330
172  329
173  337
174  270
175  273
176  314
177  264
178  275
179  263
180  245
181  246
182  259
183  248
184  209
185  214
186  210
187  207
188  161
189  182
190  182
191  189
192  172
193  175
194  153
195  157
196  172
197  163
198  144
199  142
200  143
201  139
202  161
203  130
204  138
205  147
206  136
207  156
208  125
209  125
210  152
211  142
212  154
213  148
214  138
215  128
216  136
217  159
218  134
219  151
220  142
221  145
222  174
223  175
224  174
225  162
226  146
227  187
228  172
229  179
230  174
231  192
232  226
233  217
234  223
235  240
236  266
237  264
238  292
239  286
240  312
241  377
242  340
243  388
244  374
245  447
246  453
247  495
248  564
249  572
250  659
251  642
252  660
253  737
254  675
255  746
256  823
257  842
258  827
259  858
260  878
261  847
262  871
263  864
264  924
265  878
266  857
267  811
268  807
269  762
270  727
271  673
272  684
273  619
274  616
275  515
276  507
277  463
278  407
279  350
280  312
281  323
282  310
283  194
284  218
285  181
286  171
287  134
288  136
289  95
290  108
291  96
292  84
293  79
294  69
295  62
296  83
297  69
298  49
299  66
300  55
301  40
302  48
303  52
304  64
305  41
306  57
307  45
308  50
309  60
310  56
311  47
312  42
313  36
314  56
315  41
316  52
317  44
318  52
319  63
320  36
321  46
322  52
323  43
324  44
325  47
326  43
327  53
328  43
329  50
330  43
331  36
332  38
333  35
334  47
335  44
336  53
337  49
338  44
339  37
340  39
341  39
342  62
343  49
344  48
345  39
346  41
347  58
348  38
349  44
350  38
351  51
352  39
353  36
354  42
355  36
356  42
357  54
358  39
359  35
360  45
361  41
362  47
363  54
364  35
365  40
366  44
367  45
368  47
369  51
370  50
371  42
372  51
373  58
374  47
375  41
376  47
377  55
378  44
379  51
380  47
381  35
382  36
383  34
384  49
385  37
386  45
387  60
388  55
389  46
390  35
391  44
392  41
393  56
394  51
395  43
396  44
397  43
398  56
399  39
400  58
401  42
402  42
403  42
404  45
405  48
406  45
407  43
408  46
409  47
410  43
411  52
412  38
413  50
414  35
415  48
416  48
417  49
418  36
419  47
420  50
421  48
422  47
423  44
424  49
425  66
426  49
427  44
428  52
429  51
430  56
431  50
432  54
433  47
434  63
435  41
436  58
437  55
438  52
439  51
440  45
441  47
442  39
443  51
444  47
445  60
446  43
447  53
448  44
449  43
450  54
451  37
452  36
453  52
454  49
455  58
456  44
457  50
458  41
459  53
460  65
461  33
462  54
463  53
464  57
465  55
466  51
467  49
468  48
469  42
470  51
471  46
472  56
473  54
474  51
475  56
476  43
477  53
478  43
479  58
480  59
481  51
482  51
483  56
484  46
485  49
486  60
487  48
488  50
489  40
490  63
491  53
492  55
493  62
494  49
495  46
496  55
497  55
498  53
499  47
500  57
501  54
502  49
503  39
504  27
505  43
506  42
507  42
508  48
509  57
510  61
511  46
512  47
513  43
514  34
515  41
516  41
517  28
518  36
519  47
520  41
521  43
522  51
523  40
524  41
525  34
526  44
527  31
528  31
529  33
530  28
531  30
532  27
533  22
534  39
535  35
536  32
537  26
538  30
539  28
540  36
541  25
542  31
543  18
544  21
545  28
546  27
547  18
548  21
549  23
550  14
551  25
552  23
553  28
554  27
555  20
556  13
557  17
558  19
559  14
560  18
561  16
562  18
563  19
564  22
565  20
566  19
567  10
568  27
569  24
570  26
571  21
572  18
573  20
574  21
575  23
576  16
577  19
578  21
579  22
580  21
581  24
582  28
583  35
584  23
585  24
586  29
587  32
588  38
589  30
590  40
591  36
592  42
593  32
594  31
595  42
596  47
597  58
598  40
599  45
600  52
601  55
602  58
603  58
604  40
605  50
606  72
607  57
608  60
609  63
610  57
611  69
612  63
613  63
614  57
615  69
616  66
617  90
618  80
619  77
620  69
621  80
622  80
623  73
624  74
625  75
626  62
627  82
628  79
629  65
630  75
631  83
632  80
633  70
634  70
635  74
636  71
637  64
638  65
639  66
640  47
641  54
642  57
643  51
644  43
645  49
646  41
647  53
648  39
649  43
650  46
651  29
652  28
653  35
654  30
655  32
656  22
657  33
658  30
659  23
660  15
661  23
662  14
663  19
664  12
665  10
666  15
667  7
668  11
669  9
670  9
671  4
672  6
673  8
674  6
675  9
676  3
677  8
678  2
679  5
680  4
681  2
682  5
683  5
684  2
685  8
686  5
687  4
688  4
689  3
690  1
691  4
692  0
693  2
694  3
695  2
696  1
697  4
698  3
699  1
700  7
701  2
702  1
703  3
704  3
705  5
706  3
707  4
708  1
709  1
710  6
711  3
712  2
713  1
714  4
715  7
716  2
717  2
718  2
719  0
720  5
721  0
722  4
723  4
724  3
725  1
726  2
727  1
728  5
729  2
730  2
731  4
732  4
733  2
734  0
735  1
736  2
737  0
738  1
739  1
740  3
741  1
742  0
743  3
744  0
745  2
746  0
747  0
748  1
749  0
750  2
751  0
752  0
753  0
754  2
755  0
756  0
757  1
758  2
759  2
760  0
761  3
762  5
763  1
764  0
765  0
766  0
767  2
768  0
769  1
770  1
771  1
772  0
773  0
774  1
775  0
776  0
777  1
778  1
779  2
780  1
781  2
782  0
783  2
784  1
785  1
786  0
787  0
788  0
789  0
790  2
791  0
792  1
793  1
794  1
795  1
796  0
797  2
798  0
799  0
800  1
801  0
802  1
803  0
804  0
805  2
806  4
807  6
808  6
809  3
810  12
811  3
812  12
813  10
814  12
815  25
816  146
817  52
818  28
819  0
820  0
821  0
822  0
823  0
824  0
825  0
826  0
827  0
828  0
829  0
830  0
831  0
832  0
833  0
834  0
835  0
836  0
837  0
838  0
839  0
840  0
841  0
842  0
843  1
844  0
845  0
846  0
847  0
848  0
849  0
850  0
851  0
852  0
853  0
854  0
855  0
856  0
857  0
858  0
859  0
860  0
861  0
862  0
863  0
864  0
865  0
866  0
867  0
868  0
869  0
870  0
871  0
872  0
873  0
874  0
875  0
876  0
877  0
878  0
879  0
880  0
881  0
882  0
883  0
884  0
885  0
886  0
887  0
888  0
889  0
890  0
891  0
892  0
893  0
894  0
895  0
896  0
897  0
898  0
899  0
900  0
901  0
902  0
903  0
904  0
905  0
906  0
907  0
908  0
909  0
910  0
911  0
912  0
913  0
914  0
915  0
916  0
917  0
918  0
919  0
920  0
921  0
922  0
923  0
924  0
925  0
926  0
927  0
928  0
929  0
930  0
931  0
932  0
933  0
934  0
935  0
936  0
937  0
938  0
939  0
940  0
941  0
942  0
943  1
944  3
945  2
946  1
947  0
948  2
949  1
950  0
951  1
952  1
953  2
954  0
955  3
956  0
957  1
958  1
959  0
960  2
961  1
962  1
963  0
964  0
965  0
966  1
967  2
968  1
969  3
970  0
971  1
972  1
973  1
974  1
975  2
976  2
977  0
978  2
979  2
980  2
981  0
982  1
983  0
984  3
985  2
986  0
987  0
988  5
989  1
990  0
991  2
992  1
993  3
994  0
995  3
996  2
997  3
998  3
999  6
1000  0
1001  0
1002  2
1003  6
1004  3
1005  2
1006  2
1007  1
1008  4
1009  9
1010  10
1011  17
1012  15
1013  39
1014  58
1015  35
1016  64
1017  64
1018  63
1019  87
1020  130
1021  173
1022  308
1023  1291
