0  38
1  54
2  92
3  165
4  342
5  683
6  1247
7  1808
8  2185
9  1554
10  901
11  455
12  211
13  95
14  60
15  17
16  11
17  6
18  3
19  1
20  1
21  0
22  0
23  1
24  0
25  0
26  0
27  0
28  0
29  0
30  0
31  0
32  0
33  0
34  0
35  0
36  0
37  1
38  0
39  0
40  0
41  0
42  1
43  0
44  1
45  1
46  1
47  0
48  1
49  1
50  1
51  0
52  3
53  10
54  13
55  33
56  85
57  119
58  168
59  207
60  218
61  230
62  211
63  228
64  264
65  288
66  221
67  253
68  263
69  246
70  245
71  274
72  237
73  248
74  261
75  235
76  250
77  235
78  248
79  260
80  256
81  239
82  208
83  232
84  243
85  227
86  227
87  199
88  224
89  226
90  215
91  200
92  221
93  230
94  198
95  191
96  229
97  198
98  181
99  168
100  206
101  180
102  179
103  176
104  195
105  157
106  169
107  178
108  167
109  191
110  177
111  148
112  166
113  155
114  173
115  169
116  149
117  147
118  151
119  132
120  149
121  159
122  145
123  124
124  165
125  156
126  135
127  130
128  126
129  126
130  131
131  133
132  127
133  103
134  136
135  108
136  124
137  109
138  112
139  104
140  114
141  110
142  108
143  109
144  104
145  99
146  107
147  96
148  102
149  86
150  97
151  90
152  83
153  100
154  88
155  85
156  80
157  87
158  82
159  86
160  75
161  83
162  95
163  81
164  74
165  84
166  59
167  64
168  78
169  62
170  65
171  62
172  54
173  58
174  67
175  48
176  63
177  55
178  51
179  50
180  53
181  55
182  66
183  57
184  62
185  50
186  43
187  64
188  51
189  49
190  53
191  50
192  48
193  47
194  53
195  33
196  44
197  36
198  45
199  49
200  38
201  44
202  46
203  45
204  49
205  43
206  43
207  53
208  33
209  37
210  54
211  30
212  29
213  35
214  35
215  43
216  35
217  38
218  39
219  36
220  36
221  35
222  33
223  37
224  34
225  45
226  35
227  24
228  31
229  35
230  41
231  32
232  37
233  32
234  19
235  26
236  43
237  24
238  35
239  32
240  40
241  31
242  25
243  28
244  26
245  28
246  23
247  19
248  24
249  23
250  23
251  20
252  21
253  30
254  23
255  28
256  21
257  17
258  24
259  19
260  28
261  23
262  24
263  14
264  16
265  20
266  31
267  17
268  17
269  22
270  26
271  24
272  22
273  26
274  22
275  28
276  21
277  22
278  16
279  20
280  26
281  17
282  15
283  17
284  17
285  11
286  20
287  19
288  20
289  16
290  18
291  21
292  22
293  27
294  14
295  21
296  16
297  17
298  15
299  7
300  24
301  22
302  16
303  7
304  21
305  15
306  15
307  15
308  19
309  19
310  21
311  11
312  13
313  22
314  21
315  18
316  15
317  9
318  15
319  15
320  20
321  13
322  17
323  14
324  20
325  18
326  20
327  20
328  22
329  27
330  23
331  18
332  22
333  22
334  18
335  30
336  22
337  26
338  26
339  24
340  18
341  26
342  28
343  27
344  17
345  24
346  22
347  27
348  38
349  23
350  36
351  31
352  28
353  24
354  25
355  30
356  28
357  30
358  31
359  26
360  38
361  23
362  33
363  28
364  30
365  20
366  32
367  26
368  23
369  21
370  28
371  25
372  31
373  28
374  12
375  22
376  31
377  25
378  20
379  29
380  20
381  21
382  23
383  16
384  31
385  18
386  18
387  16
388  18
389  14
390  27
391  16
392  25
393  10
394  15
395  15
396  3
397  16
398  15
399  14
400  6
401  10
402  13
403  14
404  10
405  5
406  12
407  9
408  16
409  11
410  8
411  9
412  7
413  8
414  12
415  12
416  3
417  6
418  11
419  13
420  5
421  5
422  8
423  4
424  6
425  7
426  10
427  4
428  7
429  10
430  10
431  7
432  10
433  6
434  5
435  6
436  2
437  7
438  8
439  2
440  6
441  7
442  5
443  7
444  10
445  4
446  10
447  5
448  4
449  7
450  7
451  9
452  4
453  6
454  2
455  5
456  10
457  4
458  7
459  3
460  2
461  8
462  4
463  7
464  4
465  6
466  4
467  8
468  5
469  8
470  1
471  5
472  8
473  3
474  2
475  5
476  9
477  5
478  6
479  6
480  6
481  9
482  3
483  4
484  6
485  6
486  5
487  5
488  3
489  2
490  6
491  2
492  8
493  4
494  3
495  1
496  9
497  3
498  4
499  7
500  6
501  2
502  3
503  6
504  7
505  3
506  5
507  8
508  2
509  6
510  7
511  9
512  4
513  6
514  5
515  7
516  5
517  2
518  9
519  6
520  8
521  7
522  7
523  3
524  3
525  5
526  3
527  3
528  5
529  4
530  2
531  3
532  7
533  5
534  3
535  7
536  4
537  3
538  6
539  4
540  2
541  4
542  9
543  4
544  6
545  5
546  6
547  3
548  5
549  4
550  3
551  5
552  4
553  4
554  3
555  6
556  4
557  6
558  4
559  6
560  5
561  4
562  6
563  6
564  3
565  2
566  3
567  4
568  8
569  4
570  5
571  6
572  7
573  2
574  6
575  3
576  5
577  3
578  4
579  3
580  7
581  3
582  5
583  3
584  2
585  2
586  5
587  1
588  3
589  5
590  5
591  6
592  3
593  6
594  4
595  3
596  4
597  4
598  4
599  6
600  2
601  6
602  4
603  5
604  9
605  6
606  5
607  4
608  2
609  5
610  4
611  5
612  5
613  3
614  1
615  4
616  4
617  1
618  5
619  5
620  2
621  3
622  2
623  1
624  10
625  4
626  6
627  2
628  2
629  2
630  2
631  2
632  5
633  4
634  3
635  5
636  1
637  6
638  2
639  4
640  4
641  2
642  3
643  2
644  2
645  1
646  3
647  3
648  2
649  1
650  4
651  4
652  4
653  1
654  5
655  2
656  2
657  4
658  3
659  1
660  3
661  3
662  3
663  5
664  2
665  2
666  3
667  3
668  2
669  1
670  9
671  2
672  1
673  2
674  5
675  2
676  3
677  3
678  3
679  0
680  4
681  1
682  0
683  1
684  2
685  5
686  1
687  1
688  2
689  3
690  5
691  3
692  2
693  2
694  3
695  2
696  4
697  1
698  3
699  1
700  4
701  2
702  5
703  0
704  2
705  4
706  0
707  2
708  2
709  1
710  1
711  5
712  5
713  2
714  3
715  2
716  6
717  2
718  5
719  2
720  6
721  1
722  6
723  2
724  1
725  3
726  5
727  5
728  5
729  2
730  4
731  3
732  2
733  2
734  3
735  2
736  4
737  6
738  2
739  5
740  5
741  2
742  1
743  1
744  2
745  2
746  4
747  3
748  2
749  5
750  0
751  2
752  3
753  2
754  1
755  6
756  6
757  5
758  6
759  0
760  4
761  3
762  3
763  1
764  2
765  1
766  2
767  5
768  3
769  2
770  3
771  4
772  2
773  1
774  5
775  3
776  2
777  4
778  2
779  3
780  2
781  5
782  4
783  4
784  3
785  3
786  3
787  3
788  2
789  2
790  2
791  0
792  2
793  1
794  1
795  1
796  5
797  1
798  3
799  4
800  2
801  2
802  1
803  1
804  0
805  0
806  1
807  3
808  3
809  0
810  2
811  4
812  1
813  2
814  1
815  3
816  4
817  4
818  3
819  4
820  3
821  0
822  4
823  2
824  5
825  2
826  1
827  2
828  2
829  5
830  1
831  3
832  1
833  3
834  8
835  15
836  14
837  24
838  19
839  28
840  20
841  25
842  22
843  113
844  66
845  86
846  23
847  0
848  0
849  0
850  0
851  0
852  0
853  0
854  0
855  0
856  0
857  0
858  0
859  0
860  0
861  0
862  0
863  0
864  0
865  0
866  0
867  0
868  0
869  0
870  0
871  0
872  0
873  0
874  0
875  0
876  0
877  0
878  0
879  0
880  0
881  0
882  0
883  0
884  0
885  0
886  0
887  0
888  0
889  0
890  0
891  0
892  0
893  0
894  0
895  0
896  0
897  0
898  0
899  0
900  0
901  0
902  0
903  0
904  0
905  0
906  0
907  0
908  0
909  0
910  0
911  0
912  0
913  0
914  0
915  0
916  0
917  0
918  0
919  0
920  0
921  0
922  0
923  0
924  0
925  0
926  0
927  0
928  0
929  0
930  0
931  0
932  0
933  0
934  0
935  0
936  0
937  0
938  0
939  0
940  0
941  0
942  0
943  0
944  0
945  0
946  0
947  0
948  1
949  0
950  0
951  0
952  0
953  0
954  0
955  0
956  0
957  0
958  0
959  0
960  0
961  0
962  0
963  0
964  0
965  0
966  0
967  0
968  0
969  0
970  0
971  0
972  0
973  0
974  1
975  0
976  0
977  0
978  0
979  0
980  0
981  0
982  0
983  0
984  0
985  0
986  0
987  0
988  0
989  0
990  0
991  0
992  0
993  0
994  0
995  0
996  0
997  0
998  0
999  0
1000  1
1001  0
1002  0
1003  0
1004  0
1005  0
1006  0
1007  0
1008  0
1009  0
1010  0
1011  0
1012  0
1013  0
1014  0
1015  0
1016  0
1017  0
1018  0
1019  0
1020  0
1021  0
1022  0
1023  1
