0  1979
1  1885
2  3480
3  8503
4  24305
5  55016
6  70296
7  42816
8  17739
9  6086
10  2903
11  1853
12  1314
13  952
14  632
15  467
16  368
17  258
18  234
19  194
20  160
21  143
22  109
23  95
24  97
25  85
26  73
27  59
28  47
29  56
30  50
31  40
32  32
33  29
34  25
35  30
36  26
37  26
38  28
39  24
40  19
41  21
42  22
43  25
44  19
45  24
46  27
47  18
48  30
49  32
50  18
51  27
52  26
53  31
54  29
55  22
56  16
57  27
58  17
59  34
60  22
61  27
62  29
63  31
64  45
65  35
66  53
67  50
68  67
69  137
70  296
71  590
72  768
73  800
74  839
75  844
76  847
77  851
78  871
79  790
80  861
81  846
82  859
83  884
84  886
85  895
86  881
87  817
88  935
89  902
90  919
91  895
92  916
93  920
94  969
95  929
96  978
97  974
98  963
99  1013
100  957
101  961
102  1039
103  910
104  947
105  987
106  884
107  938
108  892
109  919
110  827
111  766
112  756
113  799
114  784
115  772
116  716
117  767
118  692
119  719
120  677
121  694
122  630
123  608
124  615
125  637
126  602
127  546
128  616
129  596
130  568
131  540
132  520
133  516
134  522
135  453
136  503
137  526
138  460
139  506
140  479
141  445
142  424
143  437
144  448
145  448
146  415
147  455
148  436
149  427
150  416
151  436
152  435
153  419
154  425
155  380
156  407
157  400
158  372
159  365
160  375
161  393
162  359
163  360
164  350
165  385
166  366
167  370
168  409
169  352
170  351
171  287
172  334
173  297
174  306
175  267
176  312
177  238
178  286
179  224
180  252
181  272
182  217
183  198
184  199
185  205
186  176
187  210
188  204
189  156
190  176
191  160
192  176
193  151
194  148
195  150
196  151
197  141
198  160
199  153
200  137
201  149
202  134
203  137
204  140
205  138
206  142
207  134
208  147
209  152
210  148
211  124
212  128
213  130
214  135
215  145
216  146
217  128
218  136
219  144
220  173
221  160
222  155
223  158
224  170
225  167
226  211
227  182
228  224
229  175
230  226
231  229
232  238
233  272
234  260
235  316
236  286
237  295
238  318
239  344
240  383
241  397
242  399
243  442
244  500
245  515
246  548
247  572
248  691
249  666
250  694
251  782
252  764
253  848
254  848
255  777
256  875
257  856
258  945
259  913
260  919
261  889
262  881
263  888
264  886
265  822
266  775
267  773
268  757
269  694
270  665
271  563
272  578
273  499
274  460
275  413
276  397
277  316
278  282
279  257
280  243
281  222
282  196
283  161
284  157
285  133
286  118
287  103
288  106
289  93
290  71
291  64
292  61
293  76
294  58
295  63
296  62
297  50
298  49
299  55
300  50
301  47
302  57
303  44
304  58
305  46
306  51
307  58
308  57
309  58
310  55
311  67
312  42
313  53
314  59
315  35
316  51
317  47
318  53
319  39
320  49
321  43
322  40
323  44
324  45
325  41
326  51
327  50
328  50
329  48
330  50
331  40
332  40
333  45
334  44
335  67
336  49
337  39
338  50
339  73
340  54
341  39
342  35
343  37
344  44
345  51
346  60
347  37
348  52
349  53
350  40
351  47
352  56
353  49
354  44
355  59
356  52
357  54
358  44
359  39
360  47
361  36
362  43
363  42
364  31
365  54
366  47
367  42
368  41
369  35
370  46
371  51
372  51
373  42
374  46
375  47
376  46
377  52
378  40
379  43
380  45
381  56
382  48
383  51
384  49
385  58
386  49
387  43
388  45
389  50
390  58
391  50
392  51
393  49
394  39
395  55
396  40
397  32
398  38
399  42
400  59
401  46
402  51
403  39
404  47
405  55
406  56
407  56
408  48
409  59
410  35
411  51
412  46
413  44
414  45
415  43
416  35
417  50
418  50
419  46
420  44
421  42
422  43
423  45
424  46
425  41
426  50
427  52
428  47
429  54
430  39
431  55
432  46
433  51
434  49
435  39
436  47
437  47
438  46
439  25
440  43
441  63
442  45
443  50
444  45
445  49
446  50
447  65
448  50
449  54
450  45
451  46
452  59
453  47
454  43
455  53
456  61
457  41
458  43
459  40
460  57
461  54
462  51
463  51
464  48
465  45
466  62
467  53
468  50
469  61
470  52
471  43
472  54
473  49
474  45
475  47
476  49
477  52
478  42
479  46
480  56
481  53
482  50
483  50
484  47
485  54
486  48
487  41
488  46
489  52
490  58
491  51
492  60
493  51
494  40
495  41
496  45
497  53
498  39
499  49
500  35
501  50
502  37
503  43
504  37
505  50
506  50
507  51
508  44
509  47
510  38
511  38
512  40
513  39
514  42
515  51
516  38
517  41
518  40
519  46
520  34
521  35
522  32
523  31
524  33
525  25
526  36
527  22
528  39
529  31
530  29
531  15
532  21
533  26
534  32
535  19
536  25
537  24
538  18
539  21
540  17
541  17
542  18
543  25
544  28
545  24
546  15
547  11
548  18
549  23
550  30
551  25
552  19
553  20
554  19
555  19
556  11
557  19
558  22
559  17
560  20
561  16
562  22
563  18
564  16
565  22
566  20
567  24
568  18
569  21
570  26
571  19
572  23
573  25
574  19
575  28
576  35
577  35
578  29
579  27
580  34
581  40
582  35
583  29
584  37
585  36
586  48
587  47
588  38
589  40
590  45
591  38
592  50
593  43
594  49
595  53
596  63
597  58
598  68
599  53
600  69
601  71
602  69
603  59
604  50
605  64
606  81
607  70
608  77
609  80
610  59
611  69
612  89
613  93
614  79
615  76
616  63
617  85
618  72
619  91
620  82
621  76
622  64
623  69
624  78
625  62
626  74
627  75
628  66
629  55
630  69
631  64
632  64
633  48
634  44
635  38
636  40
637  52
638  60
639  45
640  45
641  34
642  39
643  36
644  27
645  24
646  27
647  37
648  25
649  23
650  26
651  18
652  21
653  19
654  21
655  7
656  17
657  16
658  10
659  6
660  7
661  11
662  14
663  9
664  4
665  14
666  5
667  5
668  3
669  4
670  5
671  2
672  3
673  5
674  0
675  5
676  2
677  6
678  2
679  1
680  3
681  5
682  2
683  1
684  2
685  6
686  7
687  3
688  5
689  1
690  2
691  3
692  5
693  0
694  4
695  4
696  2
697  2
698  2
699  2
700  2
701  4
702  1
703  4
704  6
705  1
706  2
707  2
708  4
709  1
710  0
711  0
712  1
713  2
714  3
715  1
716  1
717  2
718  1
719  2
720  1
721  4
722  2
723  5
724  6
725  3
726  2
727  4
728  1
729  1
730  1
731  2
732  3
733  0
734  0
735  3
736  1
737  0
738  3
739  1
740  2
741  1
742  3
743  3
744  1
745  2
746  2
747  0
748  1
749  2
750  1
751  1
752  1
753  0
754  2
755  2
756  0
757  0
758  0
759  0
760  1
761  0
762  0
763  1
764  0
765  1
766  1
767  0
768  0
769  1
770  1
771  0
772  0
773  2
774  0
775  0
776  0
777  0
778  1
779  0
780  0
781  3
782  1
783  3
784  0
785  0
786  1
787  1
788  1
789  3
790  2
791  3
792  0
793  0
794  0
795  1
796  4
797  1
798  3
799  2
800  1
801  2
802  1
803  2
804  0
805  2
806  4
807  4
808  2
809  4
810  8
811  7
812  14
813  21
814  8
815  20
816  141
817  51
818  31
819  0
820  0
821  0
822  0
823  0
824  0
825  0
826  0
827  0
828  0
829  0
830  0
831  0
832  0
833  0
834  0
835  0
836  0
837  0
838  0
839  0
840  0
841  0
842  0
843  0
844  0
845  0
846  0
847  0
848  0
849  0
850  0
851  0
852  0
853  0
854  0
855  0
856  0
857  0
858  0
859  0
860  0
861  0
862  0
863  0
864  0
865  0
866  0
867  0
868  0
869  0
870  0
871  0
872  0
873  0
874  0
875  0
876  0
877  0
878  0
879  0
880  0
881  0
882  0
883  0
884  0
885  0
886  0
887  0
888  0
889  0
890  0
891  0
892  0
893  0
894  0
895  0
896  0
897  0
898  0
899  0
900  0
901  0
902  0
903  0
904  0
905  0
906  0
907  0
908  0
909  0
910  0
911  0
912  0
913  0
914  0
915  0
916  0
917  0
918  0
919  0
920  0
921  0
922  0
923  0
924  0
925  0
926  0
927  0
928  0
929  0
930  0
931  0
932  0
933  0
934  0
935  0
936  0
937  14
938  21
939  14
940  4
941  0
942  1
943  3
944  3
945  3
946  4
947  3
948  5
949  0
950  2
951  0
952  0
953  1
954  3
955  0
956  1
957  2
958  0
959  2
960  0
961  2
962  2
963  0
964  1
965  3
966  0
967  2
968  1
969  2
970  2
971  2
972  0
973  1
974  2
975  2
976  0
977  1
978  3
979  1
980  1
981  1
982  6
983  1
984  2
985  1
986  0
987  2
988  0
989  1
990  2
991  1
992  6
993  4
994  1
995  4
996  0
997  1
998  1
999  1
1000  2
1001  4
1002  0
1003  5
1004  1
1005  3
1006  3
1007  5
1008  2
1009  8
1010  10
1011  18
1012  24
1013  40
1014  57
1015  55
1016  56
1017  55
1018  74
1019  69
1020  121
1021  157
1022  325
1023  1278
