0  725
1  561
2  1103
3  2140
4  4349
5  8468
6  15188
7  21800
8  25318
9  18989
10  11151
11  5491
12  2730
13  1121
14  576
15  299
16  160
17  57
18  50
19  25
20  20
21  15
22  24
23  13
24  19
25  12
26  19
27  17
28  23
29  15
30  17
31  16
32  15
33  11
34  23
35  20
36  18
37  12
38  20
39  16
40  14
41  16
42  15
43  14
44  17
45  18
46  17
47  13
48  16
49  24
50  16
51  25
52  32
53  46
54  116
55  192
56  356
57  557
58  814
59  953
60  1034
61  975
62  1074
63  1096
64  1134
65  1121
66  1095
67  1143
68  1148
69  1129
70  1148
71  1149
72  1216
73  1202
74  1131
75  1149
76  1171
77  1207
78  1168
79  1167
80  1313
81  1187
82  1225
83  1191
84  1186
85  1191
86  1237
87  1211
88  1244
89  1212
90  1222
91  1217
92  1240
93  1220
94  1278
95  1239
96  1273
97  1296
98  1368
99  1258
100  1251
101  1269
102  1201
103  1217
104  1306
105  1273
106  1235
107  1244
108  1290
109  1323
110  1297
111  1215
112  1255
113  1336
114  1255
115  1216
116  1185
117  1304
118  1253
119  1239
120  1265
121  1268
122  1189
123  1119
124  1139
125  1132
126  1176
127  1085
128  1122
129  1154
130  1174
131  1051
132  1052
133  1096
134  1046
135  998
136  1075
137  982
138  971
139  944
140  955
141  956
142  911
143  915
144  915
145  892
146  927
147  850
148  868
149  841
150  870
151  779
152  792
153  786
154  765
155  787
156  765
157  755
158  697
159  705
160  756
161  729
162  665
163  693
164  675
165  730
166  699
167  623
168  648
169  634
170  630
171  606
172  649
173  618
174  612
175  619
176  578
177  590
178  545
179  563
180  612
181  527
182  583
183  548
184  549
185  540
186  511
187  483
188  524
189  537
190  509
191  496
192  459
193  485
194  456
195  454
196  431
197  458
198  423
199  425
200  447
201  375
202  401
203  376
204  385
205  381
206  367
207  359
208  368
209  344
210  316
211  353
212  335
213  293
214  301
215  280
216  314
217  311
218  310
219  293
220  290
221  271
222  233
223  275
224  267
225  261
226  285
227  226
228  280
229  264
230  234
231  244
232  268
233  242
234  252
235  219
236  245
237  241
238  248
239  278
240  268
241  294
242  279
243  295
244  280
245  319
246  326
247  304
248  338
249  345
250  392
251  360
252  406
253  446
254  471
255  466
256  546
257  502
258  595
259  585
260  643
261  676
262  712
263  708
264  785
265  847
266  865
267  906
268  969
269  1016
270  972
271  1011
272  1079
273  1161
274  1108
275  1122
276  1202
277  1173
278  1181
279  1198
280  1221
281  1215
282  1215
283  1207
284  1198
285  1190
286  1196
287  1148
288  1184
289  1081
290  1086
291  1126
292  1137
293  1069
294  1029
295  1010
296  1015
297  961
298  952
299  877
300  932
301  826
302  830
303  712
304  766
305  728
306  646
307  626
308  634
309  623
310  561
311  504
312  506
313  425
314  463
315  437
316  414
317  384
318  395
319  354
320  365
321  322
322  324
323  287
324  260
325  305
326  248
327  237
328  227
329  228
330  232
331  216
332  196
333  198
334  182
335  175
336  164
337  165
338  167
339  148
340  158
341  136
342  124
343  112
344  130
345  142
346  137
347  117
348  130
349  123
350  97
351  95
352  112
353  94
354  115
355  89
356  92
357  114
358  107
359  83
360  95
361  104
362  101
363  101
364  104
365  95
366  109
367  83
368  80
369  96
370  111
371  76
372  86
373  92
374  86
375  79
376  90
377  79
378  68
379  73
380  85
381  69
382  82
383  60
384  88
385  99
386  86
387  70
388  89
389  71
390  80
391  87
392  79
393  80
394  77
395  75
396  84
397  68
398  81
399  75
400  95
401  83
402  96
403  90
404  82
405  87
406  97
407  79
408  84
409  72
410  89
411  77
412  80
413  90
414  78
415  88
416  82
417  81
418  89
419  57
420  87
421  87
422  63
423  75
424  83
425  87
426  65
427  88
428  90
429  84
430  80
431  90
432  78
433  81
434  86
435  90
436  86
437  62
438  92
439  89
440  110
441  84
442  77
443  83
444  86
445  90
446  69
447  76
448  102
449  94
450  94
451  71
452  79
453  84
454  91
455  87
456  74
457  84
458  73
459  74
460  87
461  68
462  73
463  83
464  77
465  80
466  81
467  103
468  72
469  87
470  101
471  65
472  96
473  79
474  76
475  95
476  95
477  92
478  86
479  73
480  79
481  86
482  85
483  77
484  84
485  86
486  86
487  85
488  84
489  91
490  84
491  73
492  80
493  121
494  77
495  89
496  69
497  98
498  71
499  81
500  87
501  62
502  74
503  76
504  70
505  69
506  88
507  87
508  77
509  70
510  67
511  48
512  99
513  68
514  79
515  81
516  96
517  81
518  79
519  80
520  77
521  83
522  83
523  84
524  77
525  90
526  92
527  73
528  93
529  76
530  87
531  70
532  69
533  79
534  70
535  79
536  74
537  79
538  65
539  72
540  76
541  79
542  67
543  79
544  69
545  71
546  74
547  71
548  63
549  65
550  66
551  76
552  81
553  77
554  71
555  69
556  58
557  67
558  64
559  61
560  55
561  58
562  60
563  74
564  47
565  72
566  39
567  58
568  55
569  55
570  59
571  50
572  43
573  73
574  53
575  57
576  42
577  49
578  45
579  48
580  46
581  60
582  48
583  49
584  50
585  50
586  51
587  67
588  59
589  57
590  44
591  59
592  46
593  57
594  51
595  43
596  49
597  37
598  45
599  55
600  53
601  65
602  43
603  60
604  63
605  45
606  45
607  49
608  68
609  48
610  62
611  48
612  57
613  57
614  58
615  60
616  57
617  77
618  60
619  62
620  68
621  82
622  75
623  64
624  69
625  66
626  81
627  85
628  95
629  81
630  79
631  95
632  77
633  87
634  109
635  107
636  90
637  116
638  90
639  101
640  107
641  114
642  108
643  85
644  114
645  130
646  112
647  113
648  120
649  134
650  138
651  133
652  140
653  132
654  110
655  146
656  128
657  159
658  136
659  137
660  129
661  143
662  154
663  106
664  139
665  136
666  132
667  141
668  148
669  161
670  141
671  131
672  119
673  130
674  122
675  120
676  120
677  120
678  101
679  142
680  140
681  102
682  112
683  111
684  117
685  113
686  122
687  96
688  108
689  89
690  99
691  104
692  103
693  100
694  94
695  89
696  88
697  80
698  90
699  84
700  82
701  94
702  93
703  65
704  76
705  55
706  77
707  72
708  78
709  87
710  63
711  74
712  73
713  53
714  57
715  72
716  56
717  64
718  57
719  42
720  57
721  57
722  48
723  43
724  49
725  43
726  34
727  45
728  41
729  39
730  40
731  47
732  31
733  32
734  29
735  40
736  24
737  32
738  26
739  30
740  36
741  29
742  27
743  27
744  25
745  28
746  36
747  25
748  25
749  23
750  28
751  25
752  21
753  18
754  20
755  19
756  17
757  21
758  28
759  12
760  18
761  12
762  21
763  7
764  15
765  15
766  13
767  9
768  9
769  27
770  20
771  15
772  12
773  11
774  13
775  11
776  13
777  13
778  9
779  6
780  9
781  8
782  17
783  11
784  13
785  5
786  4
787  5
788  9
789  5
790  12
791  6
792  7
793  6
794  8
795  4
796  6
797  10
798  11
799  7
800  13
801  6
802  4
803  8
804  9
805  5
806  6
807  8
808  1
809  8
810  3
811  7
812  4
813  4
814  4
815  7
816  29
817  11
818  4
819  5
820  8
821  2
822  4
823  5
824  5
825  6
826  11
827  8
828  7
829  8
830  7
831  10
832  9
833  16
834  21
835  29
836  34
837  55
838  68
839  66
840  60
841  42
842  63
843  229
844  129
845  118
846  66
847  0
848  0
849  0
850  0
851  0
852  0
853  0
854  0
855  0
856  0
857  0
858  0
859  0
860  0
861  0
862  0
863  0
864  0
865  0
866  0
867  0
868  0
869  0
870  0
871  0
872  0
873  0
874  0
875  0
876  0
877  0
878  0
879  0
880  0
881  0
882  0
883  0
884  0
885  0
886  0
887  0
888  0
889  0
890  0
891  0
892  0
893  0
894  0
895  0
896  0
897  0
898  0
899  0
900  0
901  0
902  0
903  0
904  0
905  0
906  0
907  0
908  0
909  0
910  0
911  0
912  0
913  0
914  0
915  0
916  0
917  0
918  0
919  0
920  0
921  0
922  0
923  0
924  0
925  0
926  0
927  0
928  0
929  0
930  0
931  0
932  0
933  0
934  0
935  1
936  13
937  4
938  3
939  5
940  2
941  0
942  0
943  1
944  0
945  1
946  0
947  0
948  0
949  0
950  0
951  0
952  0
953  0
954  0
955  0
956  0
957  0
958  0
959  0
960  0
961  0
962  0
963  1
964  4
965  0
966  1
967  0
968  2
969  1
970  0
971  0
972  0
973  1
974  0
975  1
976  0
977  1
978  0
979  0
980  1
981  0
982  0
983  0
984  0
985  0
986  1
987  0
988  1
989  0
990  0
991  0
992  1
993  0
994  1
995  0
996  1
997  0
998  1
999  0
1000  1
1001  0
1002  0
1003  0
1004  0
1005  0
1006  0
1007  0
1008  1
1009  1
1010  1
1011  0
1012  0
1013  0
1014  0
1015  0
1016  1
1017  1
1018  0
1019  1
1020  6
1021  5
1022  6
1023  45
