0  740
1  545
2  1104
3  2203
4  4400
5  8665
6  15560
7  22652
8  26424
9  19651
10  11642
11  5596
12  2687
13  1195
14  598
15  261
16  124
17  52
18  34
19  16
20  10
21  9
22  7
23  4
24  3
25  6
26  3
27  8
28  2
29  5
30  7
31  9
32  3
33  6
34  3
35  1
36  1
37  6
38  5
39  9
40  8
41  3
42  6
43  6
44  6
45  9
46  3
47  6
48  10
49  9
50  12
51  10
52  26
53  50
54  91
55  209
56  352
57  583
58  794
59  891
60  1014
61  1021
62  1051
63  1045
64  1145
65  1192
66  1169
67  1129
68  1203
69  1133
70  1206
71  1125
72  1195
73  1195
74  1158
75  1220
76  1251
77  1213
78  1217
79  1090
80  1186
81  1253
82  1237
83  1142
84  1224
85  1178
86  1300
87  1172
88  1179
89  1246
90  1228
91  1206
92  1235
93  1210
94  1276
95  1285
96  1283
97  1347
98  1233
99  1166
100  1244
101  1345
102  1264
103  1283
104  1340
105  1258
106  1298
107  1291
108  1287
109  1323
110  1275
111  1269
112  1359
113  1296
114  1304
115  1278
116  1216
117  1250
118  1245
119  1250
120  1300
121  1221
122  1208
123  1158
124  1185
125  1155
126  1227
127  993
128  1125
129  1093
130  1092
131  1050
132  1094
133  1086
134  995
135  966
136  995
137  948
138  1027
139  964
140  990
141  941
142  906
143  860
144  900
145  916
146  865
147  811
148  885
149  866
150  824
151  839
152  818
153  829
154  769
155  795
156  750
157  745
158  783
159  645
160  755
161  765
162  685
163  675
164  651
165  655
166  708
167  647
168  676
169  623
170  629
171  660
172  652
173  619
174  612
175  580
176  602
177  567
178  582
179  600
180  559
181  578
182  541
183  549
184  562
185  553
186  501
187  485
188  455
189  531
190  482
191  522
192  511
193  466
194  524
195  450
196  482
197  423
198  450
199  434
200  435
201  433
202  443
203  368
204  395
205  364
206  378
207  360
208  354
209  389
210  332
211  338
212  324
213  304
214  302
215  308
216  315
217  297
218  291
219  312
220  252
221  247
222  253
223  280
224  256
225  271
226  259
227  233
228  253
229  241
230  253
231  246
232  241
233  255
234  266
235  237
236  282
237  256
238  255
239  251
240  274
241  261
242  250
243  260
244  293
245  304
246  297
247  327
248  358
249  322
250  372
251  384
252  414
253  465
254  455
255  447
256  515
257  550
258  572
259  615
260  641
261  681
262  741
263  711
264  837
265  848
266  869
267  881
268  944
269  992
270  1012
271  1004
272  1047
273  1103
274  1147
275  1086
276  1176
277  1190
278  1237
279  1238
280  1218
281  1219
282  1208
283  1238
284  1247
285  1199
286  1143
287  1146
288  1187
289  1141
290  1134
291  1077
292  1098
293  1089
294  995
295  940
296  929
297  966
298  922
299  820
300  831
301  821
302  738
303  763
304  736
305  738
306  654
307  628
308  579
309  603
310  552
311  500
312  473
313  487
314  451
315  414
316  393
317  434
318  405
319  315
320  362
321  315
322  318
323  309
324  307
325  267
326  274
327  242
328  239
329  224
330  221
331  193
332  173
333  204
334  171
335  177
336  170
337  174
338  150
339  153
340  159
341  148
342  122
343  121
344  129
345  118
346  108
347  104
348  129
349  117
350  112
351  107
352  94
353  101
354  102
355  89
356  104
357  99
358  101
359  85
360  68
361  88
362  81
363  86
364  88
365  83
366  90
367  88
368  113
369  80
370  102
371  93
372  84
373  82
374  79
375  86
376  94
377  85
378  81
379  69
380  88
381  84
382  97
383  84
384  101
385  78
386  81
387  85
388  95
389  75
390  77
391  74
392  88
393  85
394  84
395  79
396  79
397  89
398  62
399  80
400  78
401  75
402  78
403  83
404  96
405  81
406  86
407  75
408  75
409  88
410  88
411  78
412  90
413  109
414  83
415  99
416  97
417  82
418  83
419  71
420  68
421  80
422  69
423  79
424  94
425  73
426  74
427  75
428  102
429  78
430  77
431  91
432  92
433  91
434  86
435  76
436  79
437  92
438  75
439  86
440  71
441  76
442  94
443  85
444  88
445  86
446  87
447  86
448  81
449  84
450  80
451  99
452  79
453  90
454  93
455  80
456  83
457  83
458  76
459  91
460  87
461  90
462  83
463  72
464  86
465  82
466  86
467  84
468  83
469  84
470  85
471  81
472  83
473  81
474  85
475  89
476  81
477  87
478  88
479  84
480  92
481  87
482  87
483  71
484  83
485  97
486  103
487  67
488  80
489  81
490  87
491  94
492  91
493  96
494  69
495  72
496  92
497  69
498  93
499  75
500  91
501  81
502  75
503  80
504  80
505  95
506  93
507  74
508  87
509  88
510  78
511  72
512  88
513  89
514  94
515  75
516  74
517  80
518  71
519  81
520  88
521  73
522  90
523  73
524  91
525  91
526  74
527  99
528  81
529  77
530  83
531  83
532  81
533  83
534  71
535  71
536  74
537  74
538  80
539  82
540  67
541  83
542  94
543  71
544  71
545  66
546  69
547  72
548  76
549  67
550  62
551  84
552  74
553  57
554  82
555  60
556  63
557  72
558  69
559  60
560  58
561  69
562  58
563  73
564  74
565  57
566  59
567  49
568  56
569  72
570  60
571  63
572  64
573  63
574  53
575  56
576  66
577  51
578  60
579  62
580  46
581  47
582  53
583  47
584  68
585  37
586  48
587  52
588  52
589  54
590  45
591  48
592  51
593  54
594  53
595  40
596  45
597  39
598  51
599  52
600  54
601  59
602  51
603  54
604  45
605  50
606  64
607  46
608  47
609  64
610  55
611  52
612  59
613  56
614  64
615  54
616  64
617  54
618  72
619  63
620  79
621  81
622  76
623  65
624  60
625  69
626  95
627  69
628  69
629  101
630  78
631  91
632  104
633  76
634  104
635  88
636  100
637  111
638  101
639  114
640  112
641  99
642  138
643  112
644  111
645  117
646  99
647  117
648  133
649  131
650  135
651  99
652  119
653  148
654  154
655  114
656  128
657  125
658  133
659  127
660  157
661  137
662  125
663  152
664  136
665  130
666  131
667  120
668  156
669  119
670  113
671  146
672  128
673  128
674  124
675  135
676  128
677  131
678  123
679  125
680  118
681  137
682  119
683  94
684  131
685  104
686  112
687  104
688  107
689  102
690  75
691  102
692  96
693  102
694  103
695  78
696  93
697  88
698  85
699  87
700  79
701  77
702  70
703  59
704  80
705  86
706  69
707  76
708  64
709  78
710  65
711  54
712  66
713  62
714  53
715  68
716  52
717  46
718  44
719  48
720  52
721  53
722  56
723  44
724  46
725  45
726  46
727  34
728  43
729  48
730  35
731  31
732  35
733  33
734  35
735  30
736  26
737  36
738  26
739  37
740  15
741  26
742  34
743  31
744  38
745  35
746  24
747  35
748  24
749  19
750  22
751  21
752  21
753  21
754  22
755  16
756  32
757  10
758  16
759  20
760  19
761  16
762  30
763  11
764  17
765  16
766  20
767  7
768  27
769  18
770  14
771  8
772  16
773  15
774  12
775  6
776  12
777  10
778  14
779  12
780  12
781  16
782  11
783  16
784  13
785  6
786  10
787  6
788  17
789  12
790  7
791  14
792  4
793  9
794  7
795  6
796  9
797  9
798  6
799  7
800  6
801  6
802  10
803  3
804  7
805  5
806  9
807  6
808  11
809  8
810  5
811  8
812  6
813  4
814  6
815  5
816  24
817  7
818  6
819  5
820  4
821  5
822  2
823  7
824  9
825  7
826  6
827  5
828  4
829  4
830  8
831  6
832  14
833  17
834  20
835  40
836  37
837  54
838  57
839  64
840  44
841  58
842  50
843  233
844  136
845  136
846  65
847  0
848  0
849  0
850  0
851  0
852  0
853  0
854  0
855  0
856  0
857  0
858  0
859  0
860  0
861  0
862  0
863  0
864  0
865  0
866  0
867  0
868  0
869  0
870  0
871  0
872  0
873  0
874  0
875  0
876  0
877  0
878  0
879  0
880  0
881  0
882  0
883  0
884  0
885  0
886  0
887  0
888  0
889  0
890  0
891  0
892  0
893  0
894  0
895  0
896  0
897  0
898  0
899  0
900  0
901  0
902  0
903  0
904  0
905  0
906  0
907  0
908  0
909  0
910  0
911  0
912  0
913  0
914  0
915  0
916  0
917  0
918  0
919  0
920  0
921  0
922  0
923  0
924  0
925  0
926  0
927  0
928  0
929  0
930  0
931  0
932  0
933  0
934  0
935  0
936  0
937  0
938  0
939  0
940  0
941  1
942  0
943  1
944  0
945  1
946  1
947  0
948  1
949  0
950  0
951  0
952  0
953  0
954  0
955  0
956  0
957  0
958  0
959  0
960  0
961  0
962  0
963  0
964  0
965  0
966  1
967  0
968  0
969  0
970  1
971  3
972  0
973  2
974  1
975  1
976  0
977  0
978  1
979  1
980  1
981  0
982  3
983  0
984  0
985  0
986  1
987  0
988  0
989  0
990  0
991  0
992  3
993  0
994  1
995  0
996  0
997  0
998  1
999  0
1000  1
1001  0
1002  1
1003  1
1004  1
1005  0
1006  0
1007  0
1008  2
1009  1
1010  0
1011  0
1012  0
1013  0
1014  0
1015  0
1016  0
1017  1
1018  3
1019  4
1020  3
1021  5
1022  10
1023  31
