0  964
1  1163
2  2329
3  5846
4  14976
5  27871
6  33095
7  22639
8  11420
9  4228
10  1818
11  1086
12  669
13  483
14  348
15  250
16  198
17  176
18  140
19  136
20  113
21  95
22  89
23  80
24  82
25  89
26  63
27  64
28  64
29  57
30  72
31  44
32  42
33  58
34  49
35  64
36  57
37  45
38  50
39  48
40  40
41  45
42  48
43  51
44  49
45  44
46  54
47  47
48  44
49  52
50  49
51  59
52  49
53  42
54  50
55  49
56  44
57  38
58  39
59  50
60  39
61  60
62  40
63  55
64  47
65  50
66  45
67  46
68  40
69  42
70  45
71  44
72  52
73  40
74  54
75  56
76  66
77  41
78  44
79  43
80  63
81  57
82  41
83  58
84  56
85  55
86  51
87  45
88  44
89  52
90  61
91  57
92  49
93  53
94  69
95  48
96  61
97  56
98  64
99  57
100  59
101  46
102  50
103  57
104  51
105  50
106  55
107  50
108  47
109  44
110  46
111  43
112  53
113  51
114  45
115  37
116  57
117  48
118  40
119  57
120  59
121  59
122  65
123  95
124  162
125  258
126  422
127  478
128  583
129  597
130  593
131  589
132  555
133  570
134  533
135  552
136  557
137  537
138  534
139  500
140  515
141  466
142  468
143  432
144  450
145  475
146  436
147  445
148  416
149  429
150  410
151  410
152  469
153  409
154  416
155  398
156  434
157  394
158  369
159  427
160  446
161  341
162  363
163  349
164  354
165  353
166  346
167  356
168  388
169  327
170  355
171  320
172  336
173  314
174  323
175  269
176  287
177  305
178  279
179  291
180  262
181  239
182  265
183  252
184  222
185  235
186  226
187  211
188  197
189  228
190  199
191  179
192  204
193  205
194  203
195  201
196  192
197  193
198  203
199  165
200  189
201  186
202  195
203  161
204  172
205  177
206  184
207  170
208  195
209  183
210  187
211  151
212  181
213  198
214  197
215  198
216  189
217  144
218  193
219  185
220  178
221  186
222  188
223  186
224  197
225  220
226  200
227  219
228  184
229  244
230  211
231  214
232  233
233  250
234  240
235  283
236  285
237  274
238  301
239  340
240  321
241  351
242  379
243  385
244  427
245  455
246  477
247  462
248  517
249  565
250  534
251  588
252  607
253  659
254  689
255  653
256  718
257  646
258  725
259  671
260  707
261  771
262  667
263  645
264  714
265  607
266  643
267  615
268  549
269  584
270  525
271  481
272  474
273  406
274  374
275  362
276  322
277  295
278  243
279  237
280  232
281  214
282  154
283  136
284  143
285  121
286  85
287  106
288  115
289  85
290  61
291  87
292  54
293  67
294  66
295  59
296  60
297  64
298  56
299  48
300  55
301  62
302  55
303  39
304  54
305  37
306  44
307  39
308  54
309  51
310  45
311  48
312  45
313  54
314  41
315  58
316  63
317  56
318  38
319  51
320  63
321  53
322  50
323  58
324  46
325  43
326  47
327  48
328  61
329  52
330  41
331  61
332  48
333  42
334  44
335  31
336  39
337  50
338  52
339  42
340  39
341  33
342  34
343  48
344  32
345  45
346  33
347  35
348  42
349  51
350  50
351  39
352  33
353  37
354  53
355  49
356  45
357  45
358  33
359  40
360  52
361  45
362  45
363  37
364  39
365  48
366  45
367  45
368  38
369  36
370  49
371  50
372  47
373  39
374  34
375  43
376  38
377  45
378  38
379  51
380  41
381  49
382  49
383  48
384  54
385  54
386  40
387  59
388  53
389  44
390  52
391  45
392  46
393  49
394  53
395  44
396  47
397  40
398  38
399  45
400  48
401  44
402  44
403  39
404  47
405  62
406  49
407  44
408  40
409  39
410  50
411  41
412  46
413  51
414  37
415  45
416  43
417  48
418  46
419  26
420  44
421  40
422  44
423  50
424  39
425  37
426  32
427  40
428  41
429  46
430  45
431  45
432  35
433  41
434  37
435  39
436  38
437  27
438  47
439  40
440  36
441  39
442  46
443  39
444  40
445  46
446  48
447  40
448  42
449  43
450  46
451  58
452  48
453  51
454  52
455  46
456  47
457  41
458  47
459  41
460  34
461  46
462  50
463  43
464  54
465  50
466  50
467  36
468  40
469  39
470  42
471  38
472  56
473  50
474  49
475  43
476  37
477  49
478  46
479  41
480  48
481  62
482  45
483  53
484  46
485  60
486  56
487  47
488  56
489  48
490  47
491  54
492  47
493  44
494  41
495  41
496  35
497  40
498  32
499  30
500  42
501  44
502  41
503  48
504  45
505  40
506  32
507  41
508  36
509  37
510  37
511  31
512  42
513  42
514  40
515  26
516  34
517  25
518  39
519  39
520  27
521  29
522  34
523  33
524  29
525  18
526  37
527  34
528  23
529  24
530  25
531  21
532  13
533  25
534  20
535  20
536  23
537  24
538  20
539  19
540  15
541  17
542  20
543  15
544  21
545  23
546  19
547  12
548  21
549  21
550  17
551  21
552  21
553  17
554  23
555  15
556  14
557  19
558  11
559  16
560  19
561  18
562  23
563  28
564  19
565  24
566  14
567  23
568  26
569  18
570  28
571  17
572  26
573  26
574  28
575  26
576  28
577  23
578  27
579  28
580  36
581  29
582  33
583  34
584  30
585  42
586  25
587  35
588  41
589  42
590  37
591  36
592  39
593  43
594  53
595  43
596  58
597  42
598  50
599  54
600  63
601  69
602  61
603  70
604  49
605  57
606  62
607  54
608  62
609  60
610  86
611  59
612  73
613  52
614  58
615  63
616  64
617  71
618  58
619  73
620  72
621  62
622  65
623  51
624  57
625  64
626  74
627  60
628  53
629  48
630  61
631  57
632  39
633  37
634  55
635  52
636  39
637  47
638  40
639  42
640  42
641  33
642  33
643  30
644  27
645  23
646  35
647  29
648  16
649  19
650  21
651  17
652  13
653  20
654  14
655  17
656  14
657  16
658  10
659  7
660  7
661  15
662  10
663  6
664  7
665  7
666  3
667  6
668  2
669  4
670  2
671  3
672  3
673  4
674  4
675  3
676  5
677  2
678  1
679  1
680  2
681  4
682  2
683  3
684  4
685  4
686  6
687  3
688  2
689  2
690  3
691  3
692  3
693  3
694  3
695  3
696  2
697  4
698  3
699  2
700  2
701  3
702  0
703  1
704  4
705  1
706  5
707  1
708  6
709  2
710  2
711  1
712  0
713  4
714  2
715  1
716  2
717  5
718  0
719  3
720  3
721  1
722  3
723  0
724  2
725  1
726  1
727  2
728  0
729  0
730  1
731  2
732  1
733  0
734  2
735  1
736  1
737  1
738  2
739  2
740  1
741  2
742  2
743  1
744  0
745  3
746  0
747  2
748  0
749  3
750  2
751  2
752  1
753  0
754  0
755  1
756  1
757  0
758  0
759  1
760  1
761  1
762  2
763  2
764  0
765  2
766  1
767  0
768  0
769  2
770  2
771  1
772  2
773  0
774  2
775  0
776  0
777  1
778  1
779  0
780  1
781  2
782  0
783  0
784  0
785  0
786  3
787  0
788  1
789  3
790  1
791  0
792  1
793  2
794  2
795  1
796  2
797  3
798  1
799  1
800  1
801  3
802  0
803  1
804  1
805  2
806  4
807  1
808  3
809  5
810  3
811  8
812  11
813  10
814  16
815  14
816  68
817  65
818  37
819  13
820  0
821  0
822  0
823  0
824  0
825  0
826  0
827  0
828  0
829  0
830  0
831  0
832  0
833  0
834  0
835  0
836  0
837  0
838  0
839  0
840  0
841  0
842  0
843  0
844  0
845  0
846  0
847  0
848  0
849  0
850  0
851  0
852  0
853  0
854  0
855  0
856  0
857  0
858  0
859  0
860  0
861  0
862  0
863  0
864  0
865  0
866  0
867  0
868  0
869  0
870  0
871  0
872  0
873  0
874  0
875  0
876  0
877  0
878  0
879  0
880  0
881  0
882  0
883  0
884  0
885  0
886  0
887  0
888  0
889  0
890  0
891  0
892  0
893  0
894  0
895  0
896  0
897  0
898  0
899  0
900  0
901  0
902  0
903  0
904  0
905  0
906  0
907  0
908  0
909  0
910  0
911  0
912  0
913  0
914  0
915  0
916  0
917  0
918  0
919  0
920  0
921  0
922  0
923  0
924  0
925  0
926  0
927  0
928  0
929  0
930  0
931  0
932  0
933  0
934  0
935  0
936  0
937  0
938  0
939  0
940  0
941  0
942  0
943  0
944  0
945  0
946  0
947  0
948  1
949  2
950  0
951  0
952  0
953  0
954  0
955  0
956  0
957  0
958  0
959  0
960  1
961  0
962  1
963  1
964  1
965  0
966  0
967  1
968  0
969  1
970  1
971  0
972  1
973  2
974  0
975  2
976  1
977  0
978  1
979  0
980  1
981  0
982  0
983  0
984  3
985  0
986  1
987  0
988  0
989  1
990  2
991  1
992  1
993  0
994  0
995  0
996  3
997  0
998  3
999  1
1000  1
1001  2
1002  1
1003  5
1004  2
1005  8
1006  8
1007  11
1008  11
1009  16
1010  13
1011  7
1012  19
1013  11
1014  6
1015  11
1016  8
1017  21
1018  31
1019  24
1020  55
1021  82
1022  160
1023  672
