0  191
1  166
2  341
3  651
4  1454
5  2743
6  4857
7  6936
8  7892
9  5800
10  3420
11  1634
12  772
13  359
14  180
15  100
16  46
17  23
18  16
19  17
20  18
21  12
22  16
23  12
24  14
25  13
26  13
27  14
28  10
29  12
30  14
31  11
32  13
33  16
34  14
35  12
36  12
37  11
38  12
39  12
40  8
41  14
42  10
43  9
44  15
45  8
46  14
47  15
48  15
49  8
50  14
51  12
52  13
53  11
54  10
55  11
56  22
57  19
58  20
59  14
60  17
61  12
62  18
63  12
64  17
65  18
66  18
67  18
68  12
69  14
70  18
71  19
72  21
73  15
74  20
75  11
76  19
77  12
78  17
79  14
80  19
81  14
82  18
83  18
84  19
85  12
86  18
87  22
88  21
89  15
90  21
91  22
92  18
93  12
94  14
95  21
96  18
97  11
98  5
99  2
100  8
101  1
102  3
103  5
104  5
105  17
106  43
107  92
108  187
109  368
110  708
111  920
112  1150
113  1253
114  1369
115  1251
116  1326
117  1302
118  1387
119  1272
120  1330
121  1293
122  1214
123  1228
124  1255
125  1180
126  1235
127  1094
128  1202
129  1149
130  1120
131  1044
132  1081
133  1091
134  1043
135  966
136  1013
137  1097
138  989
139  947
140  969
141  918
142  911
143  894
144  922
145  942
146  934
147  939
148  885
149  887
150  842
151  818
152  883
153  869
154  809
155  768
156  752
157  779
158  822
159  743
160  753
161  767
162  749
163  724
164  703
165  721
166  756
167  690
168  737
169  681
170  665
171  689
172  644
173  640
174  621
175  590
176  629
177  634
178  646
179  557
180  630
181  602
182  571
183  559
184  569
185  567
186  575
187  517
188  544
189  508
190  519
191  538
192  566
193  476
194  447
195  506
196  485
197  513
198  455
199  514
200  446
201  454
202  439
203  447
204  438
205  438
206  434
207  388
208  402
209  405
210  424
211  407
212  403
213  397
214  406
215  347
216  396
217  375
218  347
219  343
220  335
221  358
222  329
223  358
224  345
225  340
226  362
227  342
228  328
229  331
230  339
231  331
232  351
233  341
234  327
235  321
236  372
237  330
238  348
239  314
240  363
241  368
242  355
243  356
244  362
245  359
246  375
247  376
248  379
249  417
250  405
251  457
252  447
253  448
254  456
255  441
256  504
257  530
258  512
259  530
260  528
261  611
262  529
263  568
264  630
265  618
266  639
267  650
268  673
269  769
270  758
271  715
272  805
273  764
274  827
275  769
276  788
277  823
278  808
279  808
280  862
281  789
282  836
283  828
284  808
285  770
286  809
287  732
288  757
289  759
290  754
291  720
292  632
293  681
294  720
295  636
296  649
297  590
298  600
299  549
300  510
301  503
302  494
303  473
304  468
305  462
306  475
307  405
308  373
309  405
310  355
311  358
312  325
313  327
314  301
315  243
316  263
317  271
318  266
319  246
320  256
321  220
322  222
323  210
324  215
325  169
326  169
327  173
328  177
329  182
330  162
331  141
332  136
333  137
334  118
335  128
336  166
337  116
338  133
339  118
340  127
341  107
342  115
343  101
344  119
345  101
346  117
347  99
348  99
349  87
350  79
351  81
352  112
353  92
354  94
355  89
356  83
357  85
358  84
359  103
360  98
361  89
362  87
363  87
364  83
365  81
366  87
367  75
368  70
369  76
370  90
371  79
372  101
373  67
374  87
375  88
376  71
377  84
378  80
379  80
380  78
381  73
382  82
383  83
384  82
385  85
386  77
387  93
388  79
389  71
390  83
391  89
392  74
393  59
394  82
395  60
396  81
397  71
398  70
399  80
400  72
401  73
402  75
403  75
404  75
405  66
406  74
407  79
408  78
409  73
410  69
411  85
412  87
413  62
414  84
415  76
416  70
417  77
418  77
419  65
420  66
421  75
422  57
423  77
424  79
425  59
426  82
427  96
428  59
429  60
430  72
431  69
432  83
433  74
434  57
435  63
436  80
437  88
438  69
439  90
440  74
441  79
442  77
443  70
444  68
445  62
446  72
447  69
448  80
449  64
450  73
451  76
452  67
453  72
454  84
455  70
456  73
457  82
458  105
459  73
460  76
461  89
462  73
463  82
464  76
465  89
466  88
467  62
468  78
469  94
470  94
471  64
472  84
473  69
474  84
475  70
476  67
477  78
478  68
479  69
480  64
481  100
482  65
483  87
484  77
485  73
486  88
487  67
488  63
489  69
490  85
491  72
492  93
493  62
494  72
495  68
496  68
497  80
498  77
499  71
500  77
501  70
502  61
503  57
504  62
505  81
506  67
507  52
508  68
509  58
510  80
511  44
512  77
513  68
514  72
515  76
516  67
517  68
518  71
519  74
520  66
521  75
522  62
523  65
524  67
525  72
526  65
527  73
528  68
529  78
530  64
531  69
532  69
533  66
534  63
535  51
536  63
537  72
538  66
539  58
540  71
541  59
542  54
543  57
544  50
545  73
546  54
547  70
548  59
549  50
550  53
551  50
552  63
553  70
554  60
555  58
556  55
557  49
558  48
559  52
560  46
561  48
562  60
563  36
564  59
565  64
566  50
567  43
568  43
569  49
570  48
571  38
572  33
573  29
574  46
575  50
576  43
577  54
578  55
579  42
580  45
581  43
582  37
583  42
584  31
585  41
586  46
587  54
588  45
589  47
590  38
591  48
592  50
593  39
594  44
595  48
596  31
597  31
598  43
599  40
600  45
601  44
602  41
603  52
604  52
605  47
606  36
607  34
608  48
609  46
610  51
611  45
612  40
613  44
614  63
615  62
616  56
617  49
618  64
619  64
620  59
621  52
622  60
623  46
624  64
625  59
626  65
627  61
628  66
629  54
630  61
631  69
632  88
633  85
634  69
635  67
636  88
637  80
638  95
639  79
640  87
641  78
642  95
643  101
644  84
645  90
646  93
647  97
648  91
649  97
650  103
651  98
652  98
653  92
654  101
655  93
656  122
657  110
658  117
659  134
660  111
661  88
662  115
663  92
664  117
665  115
666  86
667  105
668  112
669  114
670  88
671  102
672  99
673  113
674  104
675  101
676  89
677  95
678  96
679  90
680  71
681  89
682  85
683  89
684  95
685  83
686  89
687  94
688  65
689  73
690  82
691  57
692  78
693  56
694  51
695  53
696  66
697  55
698  55
699  61
700  55
701  69
702  54
703  53
704  57
705  60
706  58
707  48
708  53
709  50
710  42
711  42
712  55
713  43
714  40
715  38
716  32
717  32
718  39
719  41
720  37
721  42
722  36
723  41
724  25
725  40
726  26
727  37
728  30
729  33
730  24
731  20
732  32
733  23
734  31
735  23
736  19
737  24
738  14
739  26
740  27
741  17
742  18
743  16
744  23
745  21
746  20
747  11
748  15
749  14
750  17
751  16
752  22
753  16
754  21
755  14
756  8
757  18
758  13
759  13
760  14
761  16
762  15
763  12
764  12
765  5
766  12
767  8
768  21
769  16
770  13
771  5
772  10
773  11
774  10
775  5
776  7
777  6
778  11
779  8
780  10
781  8
782  5
783  7
784  4
785  8
786  4
787  10
788  10
789  6
790  6
791  8
792  10
793  8
794  5
795  9
796  9
797  6
798  14
799  8
800  7
801  5
802  3
803  10
804  4
805  7
806  7
807  7
808  5
809  4
810  5
811  7
812  4
813  2
814  4
815  7
816  26
817  3
818  9
819  5
820  3
821  4
822  3
823  3
824  4
825  6
826  4
827  4
828  11
829  12
830  13
831  11
832  17
833  12
834  37
835  38
836  43
837  39
838  49
839  43
840  41
841  66
842  213
843  124
844  151
845  0
846  0
847  0
848  0
849  0
850  0
851  0
852  0
853  0
854  0
855  0
856  0
857  0
858  0
859  0
860  0
861  0
862  0
863  0
864  0
865  0
866  0
867  0
868  0
869  0
870  0
871  0
872  0
873  0
874  0
875  0
876  0
877  0
878  0
879  0
880  0
881  0
882  0
883  0
884  0
885  0
886  0
887  0
888  0
889  0
890  0
891  0
892  0
893  0
894  0
895  0
896  0
897  0
898  0
899  0
900  0
901  0
902  0
903  0
904  0
905  0
906  0
907  0
908  0
909  0
910  0
911  0
912  0
913  0
914  0
915  0
916  0
917  0
918  0
919  0
920  0
921  0
922  0
923  0
924  0
925  0
926  0
927  0
928  0
929  0
930  0
931  0
932  0
933  0
934  0
935  0
936  0
937  0
938  0
939  0
940  0
941  0
942  0
943  0
944  0
945  0
946  0
947  0
948  0
949  0
950  0
951  0
952  0
953  0
954  0
955  0
956  0
957  0
958  0
959  0
960  0
961  0
962  0
963  0
964  0
965  1
966  1
967  0
968  0
969  0
970  0
971  0
972  0
973  0
974  0
975  0
976  0
977  0
978  0
979  0
980  0
981  0
982  0
983  0
984  0
985  0
986  0
987  0
988  1
989  0
990  0
991  0
992  0
993  1
994  1
995  1
996  0
997  0
998  0
999  0
1000  0
1001  0
1002  0
1003  0
1004  0
1005  0
1006  0
1007  0
1008  0
1009  0
1010  0
1011  0
1012  0
1013  0
1014  0
1015  1
1016  3
1017  3
1018  1
1019  3
1020  7
1021  3
1022  0
1023  5
