0  231
1  223
2  442
3  845
4  1798
5  3567
6  6214
7  8764
8  10301
9  7387
10  4436
11  2134
12  1050
13  481
14  212
15  111
16  66
17  47
18  39
19  29
20  29
21  22
22  28
23  27
24  26
25  21
26  33
27  27
28  28
29  27
30  32
31  34
32  34
33  25
34  23
35  25
36  33
37  26
38  28
39  22
40  21
41  32
42  32
43  29
44  33
45  34
46  34
47  22
48  20
49  37
50  28
51  44
52  34
53  30
54  38
55  19
56  29
57  43
58  23
59  27
60  24
61  28
62  35
63  33
64  34
65  29
66  31
67  43
68  30
69  31
70  20
71  28
72  34
73  31
74  38
75  26
76  36
77  45
78  31
79  26
80  50
81  31
82  33
83  39
84  42
85  33
86  31
87  44
88  21
89  34
90  40
91  35
92  49
93  34
94  29
95  38
96  31
97  19
98  9
99  5
100  2
101  3
102  3
103  6
104  11
105  22
106  59
107  92
108  180
109  354
110  630
111  921
112  1155
113  1259
114  1282
115  1299
116  1379
117  1255
118  1314
119  1260
120  1406
121  1285
122  1269
123  1199
124  1247
125  1189
126  1170
127  1090
128  1187
129  1130
130  1154
131  1051
132  1080
133  1101
134  1086
135  1048
136  1072
137  1052
138  978
139  965
140  986
141  944
142  925
143  879
144  924
145  900
146  901
147  890
148  917
149  815
150  824
151  768
152  861
153  816
154  789
155  813
156  757
157  787
158  820
159  735
160  733
161  710
162  717
163  749
164  737
165  726
166  722
167  667
168  712
169  656
170  700
171  641
172  624
173  603
174  644
175  624
176  595
177  590
178  603
179  592
180  592
181  571
182  570
183  535
184  591
185  574
186  548
187  539
188  556
189  561
190  518
191  513
192  511
193  491
194  531
195  487
196  477
197  471
198  463
199  491
200  444
201  435
202  451
203  448
204  421
205  439
206  416
207  405
208  441
209  411
210  398
211  346
212  386
213  384
214  349
215  362
216  344
217  343
218  365
219  319
220  324
221  363
222  376
223  323
224  347
225  286
226  309
227  293
228  293
229  341
230  347
231  295
232  314
233  306
234  289
235  345
236  312
237  333
238  340
239  320
240  296
241  310
242  281
243  328
244  331
245  355
246  345
247  352
248  387
249  415
250  418
251  378
252  424
253  447
254  484
255  502
256  532
257  587
258  564
259  558
260  610
261  670
262  685
263  678
264  712
265  768
266  794
267  765
268  850
269  846
270  870
271  904
272  927
273  963
274  971
275  957
276  1056
277  1048
278  966
279  1051
280  1063
281  998
282  1011
283  946
284  992
285  978
286  974
287  962
288  994
289  942
290  894
291  887
292  871
293  864
294  855
295  769
296  786
297  747
298  738
299  739
300  669
301  694
302  651
303  602
304  580
305  564
306  532
307  512
308  479
309  497
310  479
311  421
312  424
313  379
314  376
315  339
316  355
317  321
318  318
319  296
320  273
321  271
322  257
323  266
324  239
325  214
326  216
327  212
328  195
329  180
330  188
331  171
332  165
333  181
334  160
335  155
336  139
337  138
338  159
339  141
340  116
341  148
342  126
343  97
344  122
345  109
346  138
347  116
348  122
349  98
350  99
351  92
352  119
353  102
354  105
355  97
356  120
357  106
358  94
359  90
360  98
361  90
362  74
363  81
364  86
365  78
366  83
367  99
368  84
369  99
370  82
371  74
372  86
373  79
374  82
375  85
376  82
377  85
378  86
379  95
380  70
381  89
382  80
383  66
384  86
385  86
386  80
387  95
388  86
389  77
390  76
391  77
392  81
393  69
394  94
395  89
396  79
397  84
398  83
399  75
400  81
401  73
402  80
403  90
404  81
405  97
406  72
407  89
408  72
409  86
410  92
411  85
412  91
413  80
414  86
415  63
416  77
417  91
418  87
419  72
420  87
421  88
422  80
423  73
424  70
425  78
426  70
427  92
428  88
429  90
430  90
431  78
432  90
433  76
434  95
435  73
436  89
437  69
438  93
439  84
440  80
441  74
442  89
443  88
444  70
445  88
446  74
447  85
448  85
449  84
450  78
451  73
452  83
453  67
454  78
455  84
456  74
457  78
458  72
459  88
460  75
461  79
462  93
463  79
464  69
465  69
466  81
467  86
468  84
469  83
470  82
471  84
472  76
473  72
474  82
475  75
476  75
477  89
478  95
479  86
480  77
481  74
482  88
483  88
484  86
485  64
486  83
487  71
488  87
489  76
490  70
491  76
492  86
493  80
494  72
495  84
496  80
497  67
498  102
499  79
500  88
501  64
502  66
503  91
504  67
505  82
506  61
507  61
508  78
509  74
510  78
511  55
512  73
513  69
514  78
515  75
516  74
517  64
518  79
519  70
520  87
521  84
522  80
523  73
524  75
525  75
526  63
527  60
528  68
529  69
530  70
531  76
532  61
533  69
534  50
535  74
536  66
537  87
538  65
539  69
540  73
541  61
542  74
543  49
544  66
545  70
546  56
547  39
548  54
549  52
550  59
551  66
552  50
553  65
554  52
555  57
556  59
557  65
558  59
559  57
560  71
561  60
562  66
563  54
564  58
565  54
566  57
567  56
568  57
569  45
570  52
571  44
572  45
573  60
574  67
575  41
576  53
577  58
578  56
579  42
580  42
581  56
582  49
583  52
584  67
585  58
586  49
587  46
588  42
589  60
590  50
591  52
592  46
593  49
594  43
595  54
596  43
597  51
598  49
599  63
600  44
601  48
602  45
603  43
604  45
605  51
606  49
607  49
608  50
609  62
610  60
611  50
612  57
613  52
614  65
615  51
616  49
617  55
618  57
619  53
620  65
621  62
622  68
623  65
624  70
625  94
626  68
627  89
628  72
629  74
630  86
631  82
632  95
633  83
634  92
635  111
636  85
637  94
638  103
639  111
640  93
641  106
642  94
643  112
644  123
645  120
646  112
647  101
648  106
649  102
650  105
651  109
652  125
653  97
654  121
655  136
656  134
657  111
658  136
659  97
660  95
661  110
662  128
663  126
664  124
665  104
666  112
667  104
668  107
669  98
670  113
671  102
672  123
673  131
674  99
675  86
676  116
677  112
678  101
679  96
680  112
681  104
682  100
683  87
684  113
685  86
686  98
687  74
688  96
689  97
690  95
691  73
692  79
693  80
694  88
695  73
696  86
697  84
698  82
699  52
700  79
701  69
702  53
703  70
704  65
705  59
706  62
707  48
708  60
709  59
710  52
711  54
712  50
713  46
714  44
715  50
716  42
717  41
718  49
719  38
720  51
721  39
722  31
723  36
724  31
725  52
726  37
727  49
728  39
729  25
730  36
731  36
732  31
733  33
734  32
735  33
736  29
737  27
738  30
739  21
740  23
741  25
742  23
743  23
744  30
745  24
746  17
747  19
748  20
749  18
750  17
751  27
752  18
753  16
754  21
755  22
756  19
757  15
758  20
759  10
760  13
761  15
762  16
763  17
764  20
765  14
766  10
767  7
768  15
769  13
770  16
771  21
772  5
773  13
774  15
775  11
776  6
777  4
778  9
779  2
780  10
781  12
782  8
783  10
784  8
785  14
786  10
787  9
788  3
789  8
790  10
791  4
792  6
793  9
794  9
795  8
796  10
797  4
798  7
799  14
800  7
801  8
802  7
803  4
804  1
805  12
806  8
807  6
808  3
809  6
810  7
811  4
812  4
813  5
814  10
815  6
816  37
817  7
818  8
819  4
820  6
821  3
822  2
823  4
824  4
825  2
826  7
827  5
828  3
829  6
830  9
831  8
832  27
833  23
834  30
835  30
836  52
837  51
838  53
839  44
840  36
841  62
842  196
843  140
844  183
845  13
846  0
847  0
848  0
849  0
850  0
851  0
852  0
853  0
854  0
855  0
856  0
857  0
858  0
859  0
860  0
861  0
862  0
863  0
864  0
865  0
866  0
867  0
868  0
869  0
870  0
871  0
872  0
873  0
874  0
875  0
876  0
877  0
878  0
879  0
880  0
881  0
882  0
883  0
884  0
885  0
886  0
887  0
888  0
889  0
890  0
891  0
892  0
893  0
894  0
895  0
896  0
897  0
898  0
899  0
900  0
901  0
902  0
903  0
904  0
905  0
906  0
907  0
908  0
909  0
910  0
911  0
912  0
913  0
914  0
915  0
916  0
917  0
918  0
919  0
920  0
921  0
922  0
923  0
924  0
925  0
926  0
927  0
928  0
929  0
930  0
931  0
932  0
933  0
934  0
935  0
936  0
937  0
938  0
939  0
940  0
941  0
942  0
943  0
944  0
945  1
946  0
947  0
948  0
949  0
950  0
951  0
952  0
953  0
954  0
955  0
956  0
957  0
958  0
959  0
960  0
961  0
962  0
963  0
964  0
965  0
966  0
967  0
968  0
969  0
970  0
971  0
972  0
973  0
974  0
975  0
976  0
977  0
978  0
979  0
980  0
981  0
982  0
983  0
984  0
985  0
986  0
987  0
988  0
989  0
990  0
991  0
992  0
993  0
994  0
995  0
996  0
997  0
998  1
999  0
1000  1
1001  0
1002  0
1003  0
1004  0
1005  0
1006  0
1007  0
1008  0
1009  0
1010  0
1011  1
1012  1
1013  1
1014  0
1015  2
1016  1
1017  1
1018  3
1019  3
1020  1
1021  1
1022  3
1023  14
