0  610
1  694
2  1293
3  3379
4  8759
5  16230
6  19557
7  13446
8  6599
9  2326
10  1100
11  631
12  461
13  297
14  254
15  189
16  172
17  161
18  139
19  115
20  89
21  96
22  99
23  90
24  87
25  81
26  78
27  76
28  86
29  83
30  81
31  68
32  55
33  62
34  64
35  47
36  74
37  63
38  58
39  67
40  54
41  63
42  65
43  53
44  70
45  68
46  63
47  75
48  68
49  78
50  63
51  53
52  65
53  58
54  66
55  58
56  61
57  56
58  68
59  63
60  49
61  53
62  74
63  62
64  58
65  59
66  55
67  51
68  48
69  69
70  65
71  50
72  60
73  78
74  52
75  70
76  62
77  51
78  50
79  66
80  67
81  59
82  46
83  60
84  68
85  68
86  65
87  64
88  75
89  73
90  67
91  72
92  71
93  82
94  70
95  83
96  57
97  53
98  73
99  77
100  70
101  65
102  51
103  58
104  68
105  60
106  60
107  83
108  70
109  61
110  59
111  59
112  62
113  58
114  44
115  75
116  57
117  53
118  54
119  41
120  58
121  63
122  66
123  76
124  95
125  153
126  220
127  253
128  260
129  302
130  268
131  245
132  284
133  289
134  250
135  264
136  262
137  257
138  239
139  262
140  246
141  225
142  231
143  222
144  239
145  251
146  247
147  219
148  216
149  211
150  226
151  223
152  195
153  232
154  203
155  217
156  185
157  212
158  214
159  205
160  230
161  196
162  178
163  197
164  187
165  190
166  173
167  170
168  194
169  174
170  160
171  150
172  182
173  142
174  151
175  149
176  154
177  143
178  134
179  124
180  132
181  133
182  122
183  100
184  118
185  130
186  111
187  97
188  101
189  107
190  109
191  72
192  82
193  90
194  79
195  77
196  76
197  74
198  85
199  76
200  88
201  62
202  81
203  74
204  69
205  74
206  66
207  54
208  71
209  80
210  77
211  71
212  83
213  70
214  83
215  57
216  84
217  61
218  81
219  90
220  71
221  68
222  85
223  87
224  89
225  93
226  85
227  99
228  91
229  94
230  100
231  116
232  112
233  128
234  125
235  140
236  146
237  152
238  146
239  178
240  188
241  173
242  178
243  200
244  229
245  245
246  249
247  255
248  293
249  313
250  333
251  374
252  345
253  384
254  419
255  375
256  429
257  436
258  411
259  434
260  460
261  447
262  443
263  409
264  434
265  467
266  462
267  372
268  396
269  390
270  348
271  317
272  304
273  271
274  287
275  232
276  249
277  209
278  195
279  168
280  174
281  155
282  117
283  104
284  86
285  128
286  87
287  64
288  54
289  57
290  44
291  48
292  47
293  38
294  42
295  25
296  25
297  30
298  30
299  20
300  35
301  22
302  27
303  23
304  23
305  22
306  33
307  25
308  26
309  30
310  34
311  25
312  30
313  18
314  24
315  23
316  22
317  34
318  26
319  19
320  29
321  36
322  20
323  23
324  15
325  20
326  32
327  23
328  30
329  23
330  30
331  28
332  19
333  25
334  20
335  19
336  23
337  27
338  27
339  23
340  24
341  27
342  29
343  22
344  25
345  27
346  27
347  29
348  17
349  16
350  25
351  21
352  27
353  25
354  31
355  28
356  18
357  14
358  30
359  28
360  30
361  19
362  12
363  16
364  20
365  22
366  32
367  18
368  27
369  22
370  24
371  25
372  23
373  25
374  25
375  15
376  24
377  38
378  25
379  21
380  27
381  20
382  21
383  21
384  19
385  16
386  24
387  33
388  23
389  20
390  18
391  23
392  22
393  26
394  32
395  23
396  25
397  21
398  30
399  24
400  21
401  15
402  26
403  28
404  20
405  23
406  20
407  26
408  19
409  19
410  17
411  22
412  30
413  35
414  20
415  23
416  17
417  17
418  24
419  30
420  24
421  17
422  19
423  25
424  30
425  34
426  18
427  23
428  28
429  29
430  22
431  29
432  25
433  27
434  23
435  22
436  17
437  23
438  30
439  21
440  15
441  25
442  21
443  26
444  26
445  21
446  26
447  24
448  32
449  22
450  26
451  18
452  26
453  27
454  22
455  25
456  21
457  24
458  36
459  21
460  23
461  19
462  25
463  25
464  26
465  21
466  27
467  19
468  27
469  24
470  28
471  22
472  24
473  27
474  19
475  24
476  20
477  20
478  29
479  30
480  21
481  28
482  29
483  25
484  29
485  29
486  27
487  21
488  22
489  26
490  27
491  24
492  22
493  23
494  27
495  16
496  18
497  27
498  17
499  21
500  35
501  22
502  23
503  16
504  22
505  20
506  24
507  20
508  26
509  23
510  21
511  13
512  26
513  20
514  16
515  17
516  23
517  18
518  18
519  20
520  14
521  12
522  15
523  15
524  19
525  24
526  12
527  22
528  24
529  13
530  12
531  9
532  18
533  16
534  12
535  17
536  15
537  9
538  4
539  12
540  12
541  10
542  13
543  8
544  8
545  10
546  7
547  11
548  7
549  14
550  11
551  11
552  6
553  8
554  9
555  3
556  12
557  6
558  8
559  13
560  6
561  12
562  16
563  3
564  12
565  10
566  7
567  15
568  9
569  12
570  10
571  12
572  16
573  15
574  13
575  12
576  12
577  11
578  19
579  14
580  14
581  14
582  19
583  15
584  22
585  20
586  18
587  16
588  10
589  17
590  18
591  28
592  29
593  31
594  35
595  30
596  30
597  32
598  32
599  23
600  41
601  29
602  33
603  34
604  39
605  33
606  37
607  37
608  36
609  35
610  46
611  38
612  41
613  40
614  36
615  28
616  40
617  29
618  29
619  43
620  36
621  33
622  39
623  41
624  40
625  37
626  34
627  38
628  36
629  39
630  29
631  31
632  25
633  29
634  30
635  27
636  23
637  23
638  28
639  18
640  16
641  17
642  17
643  14
644  16
645  22
646  19
647  11
648  24
649  11
650  14
651  9
652  6
653  8
654  9
655  8
656  12
657  7
658  11
659  8
660  6
661  4
662  4
663  4
664  1
665  5
666  0
667  3
668  1
669  0
670  2
671  0
672  0
673  2
674  1
675  2
676  1
677  0
678  4
679  2
680  2
681  1
682  0
683  2
684  0
685  1
686  3
687  1
688  0
689  1
690  1
691  2
692  1
693  3
694  1
695  0
696  1
697  2
698  4
699  1
700  0
701  1
702  1
703  3
704  3
705  2
706  2
707  2
708  2
709  2
710  4
711  3
712  1
713  1
714  4
715  0
716  0
717  0
718  1
719  1
720  1
721  0
722  2
723  1
724  2
725  1
726  4
727  1
728  0
729  0
730  0
731  1
732  0
733  2
734  0
735  2
736  2
737  0
738  0
739  1
740  0
741  1
742  1
743  0
744  1
745  0
746  0
747  1
748  0
749  0
750  1
751  0
752  1
753  0
754  0
755  0
756  1
757  0
758  0
759  0
760  0
761  0
762  0
763  0
764  3
765  1
766  0
767  0
768  1
769  0
770  0
771  0
772  1
773  4
774  0
775  2
776  0
777  1
778  0
779  0
780  0
781  1
782  1
783  0
784  2
785  0
786  0
787  2
788  0
789  0
790  0
791  2
792  0
793  1
794  0
795  0
796  0
797  1
798  1
799  2
800  0
801  1
802  0
803  1
804  1
805  0
806  1
807  1
808  4
809  1
810  4
811  3
812  4
813  9
814  13
815  9
816  33
817  55
818  16
819  3
820  0
821  0
822  0
823  0
824  0
825  0
826  0
827  0
828  0
829  0
830  0
831  0
832  0
833  0
834  0
835  0
836  0
837  0
838  0
839  0
840  0
841  0
842  0
843  0
844  0
845  0
846  0
847  0
848  0
849  0
850  0
851  0
852  0
853  0
854  0
855  0
856  0
857  0
858  0
859  0
860  0
861  0
862  0
863  0
864  0
865  0
866  0
867  0
868  0
869  0
870  0
871  0
872  0
873  0
874  0
875  0
876  0
877  0
878  0
879  0
880  0
881  0
882  0
883  0
884  0
885  0
886  0
887  0
888  0
889  0
890  0
891  0
892  0
893  0
894  0
895  0
896  0
897  0
898  0
899  0
900  0
901  0
902  0
903  0
904  0
905  0
906  0
907  0
908  0
909  0
910  0
911  0
912  0
913  0
914  0
915  0
916  0
917  0
918  0
919  0
920  0
921  0
922  0
923  0
924  0
925  0
926  0
927  0
928  0
929  0
930  0
931  0
932  0
933  0
934  0
935  0
936  0
937  0
938  0
939  0
940  0
941  0
942  0
943  0
944  0
945  1
946  0
947  1
948  1
949  2
950  0
951  0
952  0
953  0
954  0
955  0
956  0
957  1
958  1
959  1
960  0
961  0
962  1
963  0
964  0
965  0
966  0
967  0
968  0
969  1
970  0
971  0
972  0
973  0
974  1
975  1
976  0
977  1
978  0
979  0
980  3
981  1
982  0
983  0
984  1
985  0
986  0
987  0
988  0
989  4
990  0
991  2
992  0
993  0
994  0
995  0
996  0
997  0
998  0
999  0
1000  1
1001  1
1002  2
1003  3
1004  5
1005  7
1006  6
1007  11
1008  9
1009  10
1010  8
1011  9
1012  9
1013  7
1014  8
1015  10
1016  11
1017  9
1018  18
1019  20
1020  33
1021  66
1022  104
1023  384
