0  281
1  292
2  607
3  1184
4  2432
5  4822
6  8363
7  11814
8  13269
9  9823
10  5621
11  2827
12  1420
13  645
14  319
15  154
16  85
17  61
18  34
19  26
20  30
21  34
22  25
23  21
24  16
25  25
26  22
27  25
28  32
29  33
30  26
31  18
32  31
33  27
34  22
35  31
36  31
37  37
38  28
39  18
40  32
41  33
42  33
43  34
44  27
45  25
46  27
47  25
48  26
49  33
50  30
51  38
52  31
53  30
54  24
55  32
56  27
57  32
58  31
59  20
60  26
61  25
62  32
63  24
64  27
65  31
66  33
67  36
68  43
69  34
70  41
71  29
72  42
73  34
74  36
75  46
76  42
77  39
78  29
79  26
80  40
81  37
82  36
83  38
84  42
85  39
86  39
87  42
88  40
89  40
90  38
91  28
92  40
93  35
94  27
95  28
96  20
97  18
98  8
99  6
100  5
101  3
102  2
103  4
104  11
105  12
106  36
107  74
108  147
109  291
110  536
111  780
112  958
113  1054
114  1051
115  1088
116  1131
117  1151
118  1095
119  1102
120  1104
121  1094
122  1048
123  1023
124  960
125  1031
126  1016
127  910
128  1038
129  961
130  975
131  929
132  964
133  932
134  935
135  842
136  897
137  892
138  830
139  853
140  852
141  828
142  811
143  718
144  812
145  759
146  777
147  715
148  739
149  745
150  714
151  730
152  760
153  701
154  645
155  640
156  641
157  662
158  670
159  591
160  705
161  624
162  599
163  644
164  611
165  586
166  569
167  576
168  598
169  589
170  566
171  567
172  540
173  536
174  552
175  517
176  540
177  526
178  493
179  520
180  521
181  473
182  492
183  499
184  515
185  481
186  474
187  509
188  499
189  497
190  495
191  409
192  454
193  481
194  437
195  454
196  408
197  411
198  401
199  412
200  406
201  405
202  430
203  396
204  403
205  360
206  372
207  387
208  390
209  364
210  378
211  389
212  349
213  395
214  406
215  358
216  341
217  361
218  334
219  321
220  343
221  360
222  322
223  315
224  313
225  339
226  348
227  323
228  318
229  323
230  325
231  297
232  320
233  318
234  318
235  318
236  306
237  331
238  331
239  296
240  342
241  296
242  331
243  322
244  333
245  310
246  345
247  354
248  384
249  341
250  361
251  384
252  390
253  384
254  376
255  362
256  443
257  453
258  434
259  450
260  484
261  493
262  465
263  492
264  522
265  532
266  557
267  556
268  552
269  529
270  591
271  555
272  602
273  592
274  624
275  634
276  646
277  652
278  684
279  614
280  654
281  662
282  618
283  626
284  618
285  668
286  572
287  570
288  560
289  568
290  538
291  540
292  567
293  533
294  547
295  487
296  487
297  453
298  444
299  446
300  443
301  415
302  417
303  362
304  378
305  395
306  328
307  319
308  325
309  321
310  314
311  281
312  272
313  232
314  234
315  254
316  232
317  236
318  230
319  190
320  200
321  176
322  191
323  161
324  187
325  171
326  160
327  167
328  153
329  137
330  133
331  144
332  113
333  136
334  121
335  104
336  123
337  123
338  121
339  102
340  98
341  105
342  93
343  102
344  105
345  87
346  107
347  85
348  78
349  98
350  96
351  88
352  89
353  93
354  101
355  113
356  77
357  95
358  72
359  71
360  99
361  86
362  78
363  74
364  69
365  76
366  89
367  76
368  70
369  60
370  72
371  91
372  99
373  88
374  85
375  67
376  76
377  67
378  66
379  62
380  61
381  75
382  76
383  73
384  71
385  69
386  74
387  69
388  94
389  68
390  81
391  77
392  78
393  71
394  66
395  80
396  67
397  82
398  61
399  70
400  59
401  79
402  65
403  60
404  58
405  63
406  80
407  76
408  69
409  72
410  72
411  71
412  66
413  77
414  84
415  79
416  79
417  82
418  58
419  70
420  76
421  62
422  66
423  63
424  68
425  53
426  70
427  54
428  62
429  87
430  68
431  62
432  76
433  57
434  56
435  78
436  58
437  69
438  53
439  56
440  66
441  56
442  66
443  63
444  70
445  70
446  77
447  53
448  62
449  67
450  59
451  73
452  75
453  67
454  63
455  69
456  64
457  68
458  63
459  61
460  73
461  69
462  69
463  68
464  68
465  53
466  84
467  59
468  58
469  60
470  65
471  54
472  57
473  64
474  75
475  72
476  67
477  66
478  60
479  63
480  69
481  68
482  61
483  75
484  63
485  62
486  64
487  64
488  55
489  55
490  86
491  60
492  67
493  69
494  73
495  71
496  74
497  74
498  65
499  68
500  72
501  63
502  63
503  59
504  59
505  72
506  62
507  58
508  69
509  61
510  52
511  45
512  72
513  53
514  79
515  47
516  72
517  54
518  50
519  57
520  69
521  62
522  79
523  66
524  55
525  66
526  57
527  54
528  60
529  56
530  65
531  63
532  57
533  49
534  62
535  62
536  59
537  59
538  54
539  38
540  60
541  50
542  65
543  63
544  54
545  48
546  54
547  44
548  55
549  69
550  51
551  54
552  51
553  66
554  53
555  44
556  44
557  41
558  50
559  48
560  53
561  48
562  56
563  54
564  45
565  52
566  45
567  49
568  36
569  30
570  30
571  45
572  50
573  38
574  40
575  46
576  50
577  45
578  46
579  51
580  47
581  43
582  47
583  41
584  40
585  39
586  42
587  52
588  45
589  30
590  42
591  54
592  51
593  38
594  44
595  36
596  41
597  42
598  41
599  53
600  41
601  35
602  39
603  43
604  32
605  37
606  35
607  39
608  32
609  39
610  43
611  44
612  57
613  42
614  39
615  40
616  38
617  53
618  57
619  52
620  43
621  45
622  66
623  43
624  37
625  59
626  58
627  57
628  55
629  57
630  56
631  56
632  64
633  73
634  70
635  73
636  70
637  68
638  73
639  65
640  62
641  58
642  73
643  71
644  60
645  91
646  84
647  81
648  76
649  69
650  80
651  91
652  98
653  87
654  82
655  81
656  62
657  92
658  76
659  78
660  73
661  107
662  69
663  72
664  96
665  85
666  69
667  73
668  77
669  81
670  77
671  78
672  79
673  80
674  82
675  75
676  90
677  62
678  84
679  73
680  72
681  83
682  73
683  65
684  58
685  78
686  65
687  57
688  68
689  59
690  53
691  52
692  60
693  66
694  48
695  52
696  44
697  56
698  65
699  52
700  51
701  42
702  56
703  45
704  46
705  55
706  50
707  41
708  52
709  33
710  39
711  34
712  51
713  39
714  26
715  41
716  39
717  50
718  29
719  39
720  37
721  28
722  35
723  22
724  29
725  19
726  34
727  28
728  19
729  25
730  19
731  25
732  24
733  22
734  25
735  14
736  29
737  20
738  20
739  15
740  23
741  22
742  18
743  14
744  23
745  17
746  19
747  13
748  19
749  12
750  13
751  11
752  13
753  13
754  15
755  17
756  14
757  8
758  15
759  12
760  9
761  8
762  9
763  7
764  19
765  8
766  9
767  10
768  8
769  9
770  12
771  9
772  4
773  7
774  11
775  13
776  8
777  9
778  15
779  6
780  7
781  7
782  5
783  10
784  9
785  8
786  6
787  6
788  6
789  3
790  5
791  5
792  8
793  5
794  7
795  6
796  7
797  7
798  5
799  6
800  5
801  5
802  5
803  5
804  6
805  2
806  7
807  6
808  3
809  4
810  6
811  4
812  6
813  4
814  3
815  7
816  13
817  12
818  1
819  3
820  2
821  4
822  4
823  3
824  4
825  8
826  3
827  3
828  9
829  7
830  10
831  12
832  16
833  21
834  27
835  34
836  30
837  50
838  43
839  44
840  38
841  58
842  218
843  136
844  146
845  34
846  0
847  0
848  0
849  0
850  0
851  0
852  0
853  0
854  0
855  0
856  0
857  0
858  0
859  0
860  0
861  0
862  0
863  0
864  0
865  0
866  0
867  0
868  0
869  0
870  0
871  0
872  0
873  0
874  0
875  0
876  0
877  0
878  0
879  0
880  0
881  0
882  0
883  0
884  0
885  0
886  0
887  0
888  0
889  0
890  0
891  0
892  0
893  0
894  0
895  0
896  0
897  0
898  0
899  0
900  0
901  0
902  0
903  0
904  0
905  0
906  0
907  0
908  0
909  0
910  0
911  0
912  0
913  0
914  0
915  0
916  0
917  0
918  0
919  0
920  0
921  0
922  0
923  0
924  0
925  0
926  0
927  0
928  0
929  0
930  0
931  0
932  0
933  0
934  0
935  0
936  0
937  0
938  0
939  0
940  0
941  0
942  0
943  0
944  1
945  0
946  0
947  0
948  0
949  0
950  0
951  0
952  0
953  0
954  0
955  0
956  0
957  0
958  0
959  0
960  0
961  0
962  1
963  0
964  0
965  0
966  0
967  0
968  0
969  0
970  0
971  0
972  0
973  0
974  1
975  0
976  1
977  1
978  1
979  0
980  0
981  0
982  0
983  0
984  0
985  0
986  0
987  0
988  0
989  0
990  1
991  1
992  0
993  0
994  1
995  0
996  0
997  0
998  0
999  0
1000  1
1001  1
1002  0
1003  0
1004  0
1005  0
1006  0
1007  0
1008  0
1009  0
1010  0
1011  0
1012  1
1013  0
1014  0
1015  0
1016  0
1017  1
1018  0
1019  1
1020  2
1021  3
1022  1
1023  10
