0  1018
1  1251
2  2565
3  6665
4  18388
5  35505
6  42808
7  29283
8  14248
9  4969
10  1965
11  1147
12  655
13  426
14  260
15  198
16  142
17  119
18  100
19  75
20  63
21  66
22  57
23  50
24  50
25  37
26  36
27  40
28  43
29  31
30  33
31  21
32  22
33  25
34  20
35  21
36  20
37  19
38  26
39  18
40  23
41  22
42  17
43  25
44  28
45  23
46  19
47  25
48  18
49  19
50  21
51  21
52  31
53  22
54  31
55  25
56  16
57  24
58  20
59  24
60  12
61  25
62  19
63  16
64  18
65  26
66  24
67  24
68  23
69  23
70  19
71  11
72  24
73  31
74  19
75  31
76  36
77  28
78  32
79  25
80  34
81  23
82  26
83  27
84  24
85  27
86  27
87  32
88  24
89  24
90  26
91  28
92  28
93  40
94  31
95  23
96  28
97  33
98  30
99  36
100  38
101  27
102  28
103  34
104  37
105  25
106  27
107  18
108  26
109  27
110  20
111  21
112  27
113  33
114  20
115  24
116  24
117  27
118  26
119  21
120  24
121  37
122  24
123  60
124  100
125  178
126  299
127  318
128  411
129  385
130  381
131  412
132  363
133  353
134  386
135  337
136  342
137  353
138  383
139  331
140  352
141  325
142  359
143  277
144  324
145  341
146  297
147  310
148  304
149  320
150  289
151  256
152  287
153  286
154  260
155  260
156  285
157  295
158  249
159  237
160  268
161  280
162  261
163  266
164  258
165  249
166  231
167  218
168  247
169  247
170  236
171  225
172  228
173  224
174  214
175  197
176  216
177  222
178  212
179  183
180  206
181  207
182  174
183  187
184  205
185  165
186  211
187  184
188  184
189  167
190  175
191  150
192  154
193  142
194  164
195  169
196  156
197  146
198  159
199  141
200  188
201  151
202  154
203  138
204  141
205  156
206  155
207  154
208  139
209  148
210  136
211  155
212  145
213  136
214  144
215  130
216  126
217  146
218  149
219  134
220  148
221  137
222  143
223  141
224  136
225  147
226  155
227  150
228  138
229  138
230  136
231  138
232  141
233  137
234  154
235  140
236  162
237  163
238  152
239  129
240  155
241  150
242  173
243  186
244  161
245  207
246  176
247  164
248  176
249  196
250  158
251  197
252  192
253  228
254  202
255  189
256  209
257  213
258  207
259  217
260  202
261  223
262  188
263  168
264  206
265  197
266  187
267  164
268  184
269  153
270  152
271  151
272  132
273  124
274  128
275  117
276  112
277  115
278  107
279  90
280  87
281  79
282  61
283  54
284  67
285  64
286  36
287  55
288  51
289  37
290  46
291  56
292  51
293  40
294  35
295  47
296  43
297  37
298  51
299  39
300  41
301  49
302  36
303  42
304  41
305  31
306  30
307  33
308  49
309  55
310  29
311  43
312  38
313  29
314  24
315  33
316  33
317  44
318  31
319  28
320  30
321  22
322  30
323  37
324  36
325  32
326  38
327  26
328  35
329  36
330  39
331  27
332  33
333  25
334  37
335  35
336  27
337  29
338  26
339  31
340  30
341  28
342  33
343  30
344  33
345  31
346  29
347  33
348  22
349  32
350  28
351  23
352  29
353  35
354  32
355  17
356  34
357  35
358  30
359  30
360  18
361  34
362  32
363  31
364  31
365  31
366  26
367  29
368  28
369  33
370  25
371  38
372  41
373  22
374  29
375  31
376  25
377  30
378  24
379  33
380  27
381  24
382  30
383  28
384  28
385  34
386  22
387  21
388  30
389  29
390  26
391  27
392  24
393  23
394  26
395  31
396  26
397  29
398  20
399  21
400  27
401  18
402  21
403  29
404  24
405  20
406  22
407  21
408  19
409  31
410  27
411  24
412  22
413  22
414  30
415  23
416  32
417  27
418  26
419  23
420  33
421  33
422  26
423  23
424  27
425  33
426  30
427  28
428  24
429  28
430  31
431  22
432  24
433  30
434  30
435  21
436  32
437  34
438  31
439  23
440  25
441  20
442  33
443  23
444  31
445  29
446  29
447  27
448  28
449  30
450  28
451  19
452  31
453  22
454  26
455  23
456  30
457  29
458  16
459  41
460  23
461  27
462  19
463  24
464  25
465  29
466  22
467  26
468  19
469  35
470  26
471  15
472  17
473  28
474  29
475  29
476  22
477  28
478  31
479  20
480  32
481  26
482  24
483  28
484  28
485  20
486  20
487  25
488  26
489  32
490  23
491  21
492  20
493  25
494  23
495  26
496  20
497  24
498  16
499  26
500  29
501  24
502  21
503  20
504  27
505  22
506  21
507  25
508  29
509  11
510  7
511  15
512  20
513  15
514  20
515  18
516  22
517  19
518  22
519  16
520  22
521  20
522  16
523  19
524  21
525  12
526  19
527  15
528  11
529  16
530  12
531  12
532  18
533  13
534  12
535  14
536  14
537  8
538  16
539  17
540  13
541  10
542  12
543  8
544  4
545  11
546  10
547  14
548  19
549  7
550  13
551  7
552  9
553  8
554  12
555  10
556  14
557  12
558  13
559  13
560  15
561  11
562  10
563  15
564  18
565  11
566  8
567  11
568  14
569  10
570  15
571  12
572  12
573  18
574  13
575  13
576  11
577  11
578  12
579  8
580  21
581  13
582  12
583  13
584  8
585  23
586  23
587  15
588  15
589  15
590  28
591  19
592  24
593  13
594  12
595  21
596  28
597  24
598  19
599  29
600  20
601  20
602  19
603  24
604  26
605  27
606  34
607  29
608  21
609  29
610  23
611  22
612  29
613  29
614  32
615  30
616  34
617  20
618  24
619  35
620  23
621  35
622  19
623  21
624  23
625  24
626  24
627  18
628  21
629  31
630  15
631  17
632  14
633  18
634  14
635  15
636  22
637  12
638  13
639  8
640  15
641  15
642  16
643  6
644  12
645  6
646  11
647  12
648  8
649  10
650  7
651  7
652  9
653  6
654  8
655  7
656  6
657  4
658  4
659  4
660  4
661  5
662  4
663  1
664  2
665  3
666  3
667  3
668  1
669  1
670  7
671  3
672  2
673  3
674  3
675  4
676  0
677  3
678  2
679  1
680  1
681  2
682  3
683  3
684  1
685  3
686  2
687  3
688  4
689  2
690  2
691  1
692  2
693  4
694  2
695  1
696  1
697  4
698  1
699  3
700  3
701  5
702  2
703  2
704  0
705  2
706  2
707  1
708  1
709  3
710  4
711  2
712  1
713  4
714  0
715  5
716  0
717  2
718  4
719  2
720  2
721  2
722  0
723  3
724  2
725  2
726  0
727  0
728  0
729  1
730  0
731  2
732  0
733  1
734  0
735  0
736  0
737  1
738  1
739  0
740  1
741  1
742  1
743  1
744  0
745  1
746  1
747  0
748  1
749  0
750  0
751  0
752  3
753  2
754  0
755  3
756  0
757  1
758  1
759  1
760  1
761  1
762  1
763  0
764  2
765  1
766  1
767  0
768  1
769  2
770  4
771  0
772  0
773  0
774  1
775  0
776  2
777  0
778  0
779  2
780  0
781  0
782  0
783  1
784  1
785  1
786  2
787  0
788  1
789  1
790  0
791  0
792  0
793  2
794  3
795  1
796  1
797  0
798  1
799  0
800  1
801  2
802  3
803  1
804  4
805  1
806  1
807  2
808  0
809  2
810  7
811  7
812  10
813  12
814  16
815  13
816  101
817  67
818  37
819  0
820  0
821  0
822  0
823  0
824  0
825  0
826  0
827  0
828  0
829  0
830  0
831  0
832  0
833  0
834  0
835  0
836  0
837  0
838  0
839  0
840  0
841  0
842  0
843  0
844  0
845  0
846  0
847  0
848  0
849  0
850  0
851  0
852  0
853  0
854  0
855  0
856  0
857  0
858  0
859  0
860  0
861  0
862  0
863  0
864  0
865  0
866  0
867  0
868  0
869  0
870  0
871  0
872  0
873  0
874  0
875  0
876  0
877  0
878  0
879  0
880  0
881  0
882  0
883  0
884  0
885  0
886  0
887  0
888  0
889  0
890  0
891  0
892  0
893  0
894  0
895  0
896  0
897  0
898  0
899  0
900  0
901  0
902  0
903  0
904  0
905  0
906  0
907  0
908  0
909  0
910  0
911  0
912  0
913  0
914  0
915  0
916  0
917  0
918  0
919  0
920  0
921  0
922  0
923  0
924  0
925  0
926  0
927  0
928  0
929  0
930  0
931  0
932  0
933  0
934  0
935  0
936  0
937  0
938  0
939  0
940  0
941  0
942  0
943  1
944  0
945  0
946  0
947  1
948  2
949  2
950  1
951  0
952  1
953  1
954  1
955  1
956  0
957  0
958  0
959  0
960  0
961  2
962  0
963  0
964  2
965  1
966  1
967  1
968  1
969  2
970  3
971  0
972  1
973  0
974  1
975  0
976  1
977  0
978  1
979  0
980  0
981  0
982  0
983  2
984  1
985  1
986  4
987  0
988  0
989  2
990  1
991  1
992  3
993  0
994  0
995  2
996  1
997  1
998  1
999  0
1000  3
1001  1
1002  0
1003  5
1004  2
1005  8
1006  11
1007  17
1008  17
1009  18
1010  14
1011  17
1012  18
1013  10
1014  9
1015  12
1016  12
1017  16
1018  18
1019  30
1020  42
1021  97
1022  208
1023  678
