0  88
1  131
2  283
3  513
4  1073
5  2133
6  4057
7  5541
8  6367
9  4385
10  2586
11  1250
12  549
13  212
14  101
15  50
16  26
17  9
18  5
19  3
20  2
21  4
22  2
23  1
24  3
25  3
26  2
27  1
28  3
29  2
30  1
31  2
32  7
33  1
34  2
35  3
36  1
37  1
38  1
39  1
40  1
41  3
42  1
43  1
44  6
45  1
46  6
47  2
48  1
49  1
50  3
51  2
52  4
53  2
54  2
55  1
56  3
57  2
58  1
59  2
60  2
61  1
62  2
63  3
64  2
65  1
66  2
67  5
68  1
69  2
70  2
71  3
72  6
73  4
74  3
75  3
76  1
77  4
78  4
79  1
80  4
81  2
82  3
83  6
84  2
85  6
86  2
87  5
88  1
89  1
90  3
91  6
92  3
93  2
94  3
95  2
96  2
97  4
98  1
99  1
100  1
101  2
102  1
103  3
104  3
105  14
106  28
107  61
108  139
109  253
110  430
111  570
112  718
113  751
114  765
115  795
116  831
117  830
118  794
119  708
120  798
121  753
122  755
123  731
124  736
125  717
126  722
127  711
128  731
129  661
130  687
131  660
132  619
133  656
134  685
135  634
136  654
137  583
138  590
139  573
140  600
141  555
142  551
143  541
144  608
145  536
146  570
147  498
148  508
149  517
150  537
151  469
152  493
153  482
154  464
155  471
156  462
157  459
158  442
159  445
160  451
161  465
162  387
163  382
164  438
165  446
166  401
167  380
168  419
169  371
170  362
171  379
172  358
173  365
174  344
175  359
176  357
177  350
178  345
179  328
180  323
181  327
182  337
183  337
184  352
185  302
186  319
187  297
188  335
189  293
190  302
191  277
192  280
193  269
194  299
195  287
196  265
197  272
198  286
199  255
200  258
201  260
202  257
203  241
204  262
205  255
206  256
207  216
208  249
209  233
210  217
211  224
212  236
213  231
214  205
215  204
216  229
217  208
218  226
219  194
220  193
221  215
222  196
223  198
224  203
225  212
226  189
227  196
228  190
229  222
230  198
231  171
232  185
233  187
234  182
235  191
236  175
237  189
238  198
239  188
240  192
241  203
242  209
243  189
244  181
245  186
246  203
247  192
248  190
249  157
250  180
251  175
252  177
253  182
254  155
255  162
256  183
257  161
258  181
259  155
260  196
261  195
262  189
263  179
264  193
265  208
266  177
267  206
268  197
269  199
270  217
271  193
272  193
273  177
274  196
275  188
276  210
277  187
278  183
279  180
280  188
281  190
282  184
283  202
284  145
285  184
286  177
287  157
288  159
289  186
290  157
291  146
292  173
293  150
294  154
295  173
296  145
297  150
298  121
299  152
300  129
301  118
302  129
303  103
304  116
305  129
306  98
307  116
308  111
309  109
310  99
311  88
312  96
313  88
314  68
315  84
316  90
317  88
318  73
319  88
320  79
321  88
322  81
323  68
324  87
325  97
326  82
327  77
328  69
329  58
330  65
331  58
332  69
333  75
334  62
335  64
336  55
337  61
338  71
339  54
340  64
341  55
342  50
343  49
344  60
345  53
346  53
347  52
348  50
349  58
350  56
351  50
352  56
353  52
354  60
355  60
356  45
357  65
358  50
359  49
360  54
361  49
362  55
363  60
364  47
365  47
366  48
367  46
368  47
369  61
370  39
371  41
372  57
373  38
374  53
375  50
376  51
377  39
378  46
379  42
380  41
381  52
382  52
383  46
384  46
385  45
386  46
387  49
388  45
389  36
390  42
391  44
392  43
393  45
394  53
395  31
396  44
397  43
398  51
399  53
400  35
401  40
402  47
403  48
404  54
405  44
406  45
407  38
408  43
409  50
410  47
411  43
412  38
413  54
414  37
415  37
416  35
417  38
418  44
419  39
420  32
421  46
422  37
423  51
424  34
425  31
426  33
427  34
428  44
429  36
430  41
431  44
432  48
433  38
434  42
435  37
436  45
437  44
438  38
439  55
440  29
441  30
442  41
443  44
444  39
445  35
446  32
447  37
448  38
449  36
450  43
451  35
452  33
453  48
454  47
455  39
456  50
457  31
458  33
459  32
460  29
461  36
462  40
463  43
464  30
465  37
466  38
467  36
468  44
469  33
470  41
471  32
472  40
473  38
474  33
475  32
476  45
477  32
478  37
479  36
480  35
481  38
482  31
483  35
484  43
485  44
486  49
487  35
488  34
489  34
490  34
491  36
492  38
493  38
494  29
495  30
496  28
497  33
498  21
499  28
500  29
501  29
502  29
503  30
504  35
505  39
506  35
507  38
508  25
509  38
510  22
511  28
512  46
513  30
514  23
515  25
516  24
517  31
518  38
519  29
520  30
521  38
522  32
523  32
524  21
525  27
526  38
527  29
528  24
529  34
530  26
531  17
532  24
533  24
534  24
535  47
536  24
537  29
538  36
539  31
540  36
541  25
542  33
543  23
544  34
545  23
546  35
547  33
548  34
549  19
550  39
551  21
552  39
553  23
554  22
555  28
556  26
557  32
558  23
559  17
560  27
561  18
562  28
563  28
564  21
565  40
566  18
567  16
568  20
569  30
570  23
571  31
572  23
573  21
574  22
575  24
576  29
577  22
578  23
579  17
580  28
581  15
582  30
583  20
584  21
585  28
586  25
587  29
588  20
589  29
590  25
591  24
592  15
593  16
594  20
595  25
596  29
597  23
598  29
599  21
600  18
601  26
602  22
603  23
604  8
605  20
606  17
607  17
608  22
609  20
610  22
611  15
612  22
613  28
614  23
615  15
616  19
617  32
618  27
619  17
620  21
621  16
622  23
623  22
624  32
625  24
626  13
627  26
628  27
629  29
630  21
631  24
632  38
633  24
634  31
635  36
636  22
637  23
638  29
639  26
640  23
641  24
642  14
643  32
644  25
645  31
646  30
647  34
648  33
649  24
650  26
651  36
652  35
653  27
654  32
655  34
656  34
657  32
658  29
659  28
660  41
661  32
662  37
663  30
664  30
665  38
666  44
667  28
668  32
669  37
670  30
671  23
672  33
673  36
674  33
675  28
676  34
677  30
678  21
679  25
680  23
681  26
682  20
683  27
684  20
685  25
686  24
687  26
688  18
689  23
690  12
691  29
692  24
693  17
694  27
695  21
696  18
697  18
698  20
699  19
700  15
701  21
702  16
703  20
704  14
705  17
706  17
707  26
708  11
709  18
710  14
711  9
712  9
713  14
714  19
715  15
716  13
717  17
718  23
719  12
720  11
721  15
722  21
723  9
724  19
725  16
726  14
727  12
728  11
729  13
730  12
731  12
732  12
733  5
734  13
735  8
736  14
737  12
738  14
739  9
740  4
741  8
742  15
743  14
744  10
745  8
746  14
747  7
748  4
749  9
750  5
751  8
752  11
753  7
754  7
755  5
756  6
757  13
758  9
759  12
760  13
761  7
762  5
763  9
764  7
765  13
766  6
767  3
768  7
769  6
770  5
771  4
772  4
773  4
774  6
775  4
776  9
777  7
778  4
779  6
780  6
781  3
782  3
783  7
784  8
785  5
786  4
787  4
788  4
789  4
790  1
791  2
792  6
793  4
794  0
795  4
796  1
797  3
798  5
799  7
800  5
801  4
802  4
803  5
804  4
805  4
806  2
807  1
808  0
809  2
810  4
811  3
812  2
813  2
814  3
815  3
816  3
817  3
818  1
819  2
820  1
821  3
822  3
823  1
824  5
825  4
826  5
827  4
828  6
829  11
830  10
831  12
832  15
833  23
834  25
835  32
836  58
837  50
838  44
839  36
840  34
841  110
842  155
843  111
844  112
845  0
846  0
847  0
848  0
849  0
850  0
851  0
852  0
853  0
854  0
855  0
856  0
857  0
858  0
859  0
860  0
861  0
862  0
863  0
864  0
865  0
866  0
867  0
868  0
869  0
870  0
871  0
872  0
873  0
874  0
875  0
876  0
877  0
878  0
879  0
880  0
881  0
882  0
883  0
884  0
885  0
886  0
887  0
888  0
889  0
890  0
891  0
892  0
893  0
894  0
895  0
896  0
897  0
898  0
899  0
900  0
901  0
902  0
903  0
904  0
905  0
906  0
907  0
908  0
909  0
910  0
911  0
912  0
913  0
914  0
915  0
916  0
917  0
918  0
919  0
920  0
921  0
922  0
923  0
924  0
925  0
926  0
927  0
928  0
929  0
930  0
931  0
932  0
933  0
934  0
935  0
936  0
937  0
938  0
939  0
940  0
941  0
942  0
943  0
944  0
945  0
946  0
947  0
948  0
949  0
950  0
951  0
952  0
953  0
954  0
955  0
956  0
957  0
958  0
959  0
960  0
961  0
962  0
963  0
964  0
965  0
966  0
967  0
968  0
969  0
970  0
971  0
972  0
973  0
974  0
975  0
976  2
977  0
978  0
979  0
980  0
981  0
982  0
983  0
984  0
985  0
986  0
987  0
988  1
989  0
990  0
991  0
992  0
993  0
994  0
995  0
996  0
997  0
998  0
999  0
1000  1
1001  0
1002  0
1003  0
1004  0
1005  1
1006  0
1007  0
1008  0
1009  0
1010  0
1011  0
1012  0
1013  0
1014  0
1015  0
1016  0
1017  0
1018  0
1019  0
1020  1
1021  0
1022  3
1023  0
