0  1132
1  1393
2  2786
3  7146
4  18979
5  35570
6  42796
7  29037
8  14308
9  5074
10  2118
11  1182
12  770
13  459
14  351
15  231
16  232
17  228
18  174
19  143
20  105
21  108
22  92
23  78
24  75
25  80
26  53
27  64
28  70
29  85
30  60
31  56
32  53
33  47
34  55
35  43
36  54
37  46
38  39
39  58
40  49
41  66
42  53
43  48
44  53
45  46
46  40
47  44
48  55
49  39
50  42
51  49
52  50
53  51
54  58
55  44
56  62
57  52
58  46
59  48
60  52
61  57
62  56
63  42
64  50
65  60
66  59
67  48
68  52
69  57
70  48
71  47
72  57
73  56
74  62
75  63
76  46
77  62
78  59
79  59
80  68
81  53
82  56
83  52
84  53
85  68
86  55
87  62
88  55
89  58
90  64
91  57
92  52
93  67
94  62
95  61
96  47
97  64
98  61
99  63
100  61
101  55
102  61
103  58
104  58
105  51
106  64
107  51
108  45
109  43
110  47
111  45
112  53
113  65
114  37
115  60
116  52
117  52
118  46
119  57
120  46
121  53
122  75
123  59
124  146
125  248
126  349
127  408
128  485
129  533
130  481
131  460
132  471
133  447
134  438
135  481
136  485
137  395
138  469
139  438
140  414
141  415
142  391
143  409
144  432
145  360
146  344
147  337
148  407
149  378
150  363
151  373
152  382
153  389
154  364
155  340
156  354
157  347
158  314
159  317
160  386
161  337
162  350
163  355
164  323
165  314
166  312
167  298
168  325
169  304
170  312
171  285
172  320
173  337
174  261
175  289
176  289
177  282
178  257
179  235
180  250
181  262
182  246
183  206
184  250
185  250
186  244
187  214
188  193
189  201
190  218
191  207
192  215
193  212
194  187
195  188
196  194
197  206
198  195
199  210
200  199
201  169
202  195
203  175
204  180
205  194
206  179
207  195
208  173
209  196
210  181
211  185
212  198
213  189
214  194
215  179
216  182
217  171
218  180
219  170
220  171
221  193
222  175
223  193
224  178
225  198
226  197
227  178
228  200
229  206
230  177
231  209
232  211
233  186
234  256
235  213
236  222
237  217
238  222
239  234
240  240
241  241
242  291
243  287
244  272
245  296
246  282
247  319
248  339
249  330
250  362
251  332
252  362
253  335
254  405
255  392
256  422
257  401
258  452
259  395
260  442
261  452
262  389
263  392
264  413
265  374
266  418
267  383
268  397
269  344
270  366
271  305
272  261
273  301
274  257
275  243
276  239
277  184
278  173
279  159
280  137
281  121
282  127
283  144
284  89
285  92
286  77
287  87
288  78
289  73
290  66
291  67
292  69
293  50
294  61
295  40
296  39
297  61
298  35
299  58
300  38
301  47
302  50
303  41
304  41
305  56
306  45
307  56
308  45
309  48
310  56
311  45
312  44
313  35
314  40
315  44
316  45
317  41
318  32
319  48
320  42
321  45
322  44
323  53
324  44
325  49
326  53
327  39
328  47
329  35
330  30
331  28
332  49
333  47
334  36
335  43
336  26
337  37
338  41
339  40
340  57
341  47
342  39
343  33
344  45
345  35
346  40
347  24
348  51
349  39
350  26
351  26
352  37
353  45
354  39
355  43
356  40
357  39
358  38
359  41
360  38
361  35
362  44
363  40
364  47
365  43
366  37
367  44
368  45
369  41
370  51
371  38
372  34
373  41
374  35
375  24
376  30
377  31
378  45
379  38
380  43
381  42
382  44
383  43
384  37
385  42
386  40
387  51
388  42
389  38
390  39
391  37
392  30
393  29
394  29
395  26
396  30
397  40
398  40
399  37
400  34
401  30
402  37
403  43
404  41
405  35
406  40
407  36
408  33
409  33
410  30
411  33
412  39
413  39
414  36
415  26
416  27
417  32
418  39
419  26
420  31
421  38
422  24
423  35
424  32
425  38
426  43
427  30
428  33
429  36
430  42
431  38
432  31
433  29
434  37
435  33
436  33
437  45
438  40
439  29
440  40
441  41
442  33
443  37
444  29
445  34
446  29
447  30
448  36
449  41
450  32
451  49
452  34
453  37
454  33
455  40
456  23
457  33
458  34
459  37
460  42
461  29
462  31
463  20
464  29
465  32
466  36
467  31
468  23
469  43
470  32
471  27
472  36
473  37
474  36
475  37
476  35
477  36
478  31
479  31
480  30
481  31
482  32
483  25
484  35
485  29
486  35
487  48
488  33
489  34
490  34
491  42
492  25
493  37
494  40
495  46
496  35
497  23
498  25
499  35
500  36
501  38
502  28
503  36
504  33
505  27
506  36
507  32
508  32
509  31
510  17
511  28
512  31
513  30
514  27
515  18
516  29
517  25
518  19
519  25
520  19
521  18
522  15
523  22
524  28
525  21
526  19
527  20
528  20
529  19
530  20
531  20
532  18
533  20
534  17
535  16
536  16
537  17
538  14
539  16
540  14
541  20
542  13
543  18
544  12
545  18
546  19
547  12
548  11
549  16
550  19
551  7
552  14
553  17
554  10
555  18
556  12
557  12
558  14
559  12
560  16
561  9
562  8
563  20
564  20
565  13
566  15
567  11
568  17
569  22
570  19
571  21
572  22
573  25
574  17
575  21
576  18
577  23
578  15
579  29
580  22
581  20
582  21
583  25
584  24
585  32
586  20
587  28
588  32
589  20
590  31
591  31
592  29
593  31
594  27
595  32
596  23
597  37
598  24
599  37
600  49
601  37
602  44
603  43
604  46
605  41
606  34
607  46
608  54
609  42
610  38
611  39
612  49
613  44
614  43
615  44
616  54
617  51
618  45
619  35
620  59
621  43
622  35
623  38
624  40
625  47
626  42
627  34
628  35
629  34
630  28
631  25
632  40
633  32
634  41
635  37
636  33
637  36
638  37
639  21
640  23
641  24
642  23
643  23
644  25
645  12
646  11
647  15
648  16
649  13
650  12
651  11
652  16
653  11
654  14
655  9
656  10
657  6
658  8
659  7
660  6
661  2
662  7
663  2
664  7
665  6
666  1
667  5
668  5
669  3
670  1
671  3
672  5
673  4
674  3
675  1
676  4
677  2
678  2
679  1
680  0
681  4
682  4
683  6
684  5
685  2
686  3
687  2
688  2
689  4
690  1
691  7
692  1
693  3
694  2
695  4
696  2
697  2
698  1
699  0
700  2
701  2
702  4
703  5
704  2
705  2
706  0
707  4
708  1
709  0
710  0
711  1
712  3
713  4
714  1
715  4
716  3
717  3
718  2
719  3
720  1
721  1
722  0
723  4
724  1
725  3
726  3
727  4
728  0
729  0
730  1
731  2
732  1
733  0
734  1
735  2
736  0
737  1
738  4
739  0
740  0
741  0
742  0
743  1
744  0
745  3
746  1
747  1
748  2
749  1
750  0
751  1
752  2
753  0
754  0
755  1
756  1
757  2
758  0
759  1
760  2
761  1
762  0
763  1
764  0
765  1
766  1
767  0
768  2
769  0
770  1
771  0
772  0
773  0
774  0
775  0
776  0
777  1
778  0
779  0
780  2
781  2
782  2
783  0
784  0
785  0
786  0
787  0
788  1
789  0
790  1
791  4
792  2
793  2
794  2
795  0
796  1
797  4
798  2
799  3
800  1
801  0
802  0
803  1
804  1
805  1
806  2
807  1
808  2
809  0
810  7
811  9
812  10
813  13
814  9
815  11
816  82
817  90
818  39
819  2
820  1
821  0
822  0
823  0
824  0
825  0
826  0
827  0
828  0
829  0
830  0
831  0
832  0
833  0
834  0
835  0
836  0
837  0
838  0
839  0
840  0
841  0
842  0
843  0
844  0
845  0
846  0
847  0
848  0
849  0
850  0
851  0
852  0
853  0
854  0
855  0
856  0
857  0
858  0
859  0
860  0
861  0
862  0
863  0
864  0
865  0
866  0
867  0
868  0
869  0
870  0
871  0
872  0
873  0
874  0
875  0
876  0
877  0
878  0
879  0
880  0
881  0
882  0
883  0
884  0
885  0
886  0
887  0
888  0
889  0
890  0
891  0
892  0
893  0
894  0
895  0
896  0
897  0
898  0
899  0
900  0
901  0
902  0
903  0
904  0
905  0
906  0
907  0
908  0
909  0
910  0
911  0
912  0
913  0
914  0
915  0
916  0
917  0
918  0
919  0
920  0
921  0
922  0
923  0
924  0
925  0
926  0
927  0
928  0
929  0
930  0
931  0
932  0
933  0
934  0
935  0
936  0
937  0
938  0
939  0
940  1
941  3
942  0
943  0
944  0
945  3
946  1
947  2
948  2
949  0
950  2
951  0
952  0
953  0
954  1
955  1
956  0
957  0
958  1
959  0
960  0
961  0
962  1
963  0
964  0
965  0
966  1
967  2
968  2
969  2
970  0
971  0
972  0
973  1
974  1
975  1
976  2
977  3
978  1
979  2
980  1
981  0
982  2
983  0
984  2
985  1
986  0
987  0
988  1
989  1
990  0
991  2
992  1
993  1
994  0
995  2
996  0
997  1
998  1
999  1
1000  2
1001  3
1002  7
1003  6
1004  8
1005  12
1006  20
1007  16
1008  20
1009  14
1010  24
1011  9
1012  13
1013  14
1014  8
1015  22
1016  19
1017  20
1018  25
1019  35
1020  60
1021  100
1022  198
1023  737
