0  432
1  559
2  1016
3  2775
4  8411
5  17975
6  23002
7  15099
8  7018
9  2284
10  880
11  534
12  277
13  166
14  84
15  70
16  53
17  33
18  25
19  18
20  21
21  17
22  10
23  10
24  15
25  7
26  10
27  5
28  1
29  3
30  5
31  3
32  3
33  0
34  5
35  8
36  2
37  0
38  7
39  7
40  5
41  3
42  2
43  0
44  2
45  3
46  5
47  2
48  4
49  2
50  1
51  5
52  1
53  3
54  2
55  6
56  3
57  9
58  3
59  3
60  2
61  1
62  5
63  2
64  3
65  2
66  3
67  7
68  4
69  5
70  3
71  3
72  3
73  3
74  5
75  7
76  3
77  9
78  2
79  5
80  6
81  6
82  3
83  5
84  5
85  4
86  4
87  5
88  5
89  8
90  3
91  4
92  4
93  3
94  5
95  4
96  6
97  7
98  6
99  6
100  5
101  6
102  3
103  4
104  3
105  3
106  3
107  7
108  3
109  6
110  7
111  3
112  3
113  4
114  2
115  5
116  6
117  7
118  4
119  7
120  3
121  9
122  18
123  26
124  71
125  144
126  228
127  284
128  335
129  327
130  330
131  293
132  343
133  276
134  320
135  260
136  281
137  241
138  276
139  296
140  292
141  256
142  293
143  255
144  236
145  247
146  221
147  211
148  230
149  232
150  207
151  230
152  220
153  247
154  229
155  223
156  200
157  207
158  226
159  197
160  207
161  189
162  211
163  171
164  201
165  172
166  196
167  189
168  189
169  181
170  159
171  163
172  165
173  186
174  138
175  148
176  169
177  150
178  143
179  164
180  133
181  159
182  144
183  128
184  119
185  127
186  149
187  143
188  120
189  116
190  147
191  130
192  119
193  143
194  107
195  118
196  128
197  125
198  111
199  117
200  102
201  106
202  130
203  111
204  105
205  101
206  103
207  116
208  115
209  98
210  106
211  112
212  109
213  92
214  98
215  90
216  79
217  108
218  98
219  85
220  91
221  108
222  97
223  92
224  99
225  103
226  92
227  85
228  94
229  104
230  96
231  91
232  91
233  96
234  89
235  102
236  105
237  101
238  85
239  112
240  94
241  104
242  95
243  91
244  108
245  91
246  83
247  101
248  103
249  108
250  110
251  109
252  117
253  110
254  108
255  90
256  105
257  136
258  84
259  101
260  111
261  115
262  106
263  107
264  98
265  100
266  88
267  103
268  82
269  79
270  80
271  66
272  77
273  72
274  54
275  63
276  53
277  54
278  42
279  53
280  53
281  61
282  46
283  39
284  38
285  46
286  43
287  35
288  34
289  31
290  35
291  21
292  25
293  38
294  40
295  32
296  21
297  26
298  40
299  36
300  33
301  42
302  29
303  21
304  29
305  36
306  31
307  33
308  32
309  16
310  31
311  26
312  29
313  26
314  23
315  29
316  23
317  30
318  23
319  30
320  29
321  30
322  32
323  22
324  23
325  17
326  22
327  25
328  24
329  33
330  27
331  24
332  28
333  18
334  14
335  27
336  20
337  28
338  24
339  25
340  25
341  26
342  26
343  27
344  24
345  26
346  29
347  25
348  21
349  30
350  29
351  16
352  21
353  38
354  25
355  20
356  27
357  19
358  30
359  26
360  24
361  19
362  17
363  25
364  28
365  23
366  26
367  20
368  27
369  15
370  31
371  25
372  23
373  32
374  22
375  25
376  21
377  19
378  18
379  15
380  18
381  24
382  18
383  20
384  40
385  16
386  21
387  22
388  20
389  18
390  18
391  19
392  21
393  21
394  16
395  23
396  17
397  18
398  22
399  23
400  34
401  17
402  23
403  13
404  12
405  18
406  20
407  14
408  22
409  16
410  24
411  21
412  22
413  22
414  14
415  11
416  15
417  26
418  16
419  14
420  18
421  21
422  17
423  27
424  16
425  21
426  23
427  18
428  14
429  13
430  17
431  13
432  18
433  17
434  17
435  16
436  16
437  15
438  20
439  18
440  20
441  21
442  15
443  15
444  23
445  18
446  24
447  17
448  23
449  17
450  17
451  21
452  26
453  14
454  11
455  14
456  24
457  10
458  15
459  10
460  15
461  18
462  13
463  19
464  14
465  17
466  20
467  22
468  14
469  17
470  14
471  14
472  21
473  16
474  12
475  15
476  15
477  13
478  15
479  10
480  12
481  17
482  11
483  21
484  12
485  19
486  15
487  14
488  17
489  15
490  19
491  14
492  18
493  15
494  10
495  21
496  15
497  13
498  20
499  22
500  21
501  16
502  8
503  9
504  19
505  12
506  20
507  11
508  8
509  12
510  24
511  5
512  9
513  6
514  17
515  13
516  7
517  18
518  10
519  14
520  11
521  14
522  17
523  9
524  10
525  13
526  15
527  10
528  15
529  15
530  10
531  10
532  11
533  5
534  8
535  9
536  12
537  4
538  7
539  10
540  7
541  7
542  9
543  9
544  8
545  10
546  8
547  8
548  8
549  11
550  12
551  7
552  10
553  15
554  3
555  5
556  5
557  8
558  7
559  9
560  12
561  11
562  10
563  10
564  11
565  6
566  6
567  12
568  10
569  8
570  5
571  10
572  7
573  20
574  11
575  7
576  10
577  11
578  13
579  8
580  7
581  8
582  16
583  18
584  12
585  13
586  10
587  11
588  14
589  12
590  16
591  5
592  14
593  12
594  15
595  11
596  14
597  11
598  16
599  13
600  12
601  18
602  16
603  12
604  15
605  24
606  20
607  15
608  18
609  16
610  14
611  15
612  8
613  19
614  18
615  17
616  19
617  18
618  10
619  11
620  16
621  19
622  13
623  14
624  17
625  7
626  16
627  14
628  10
629  14
630  13
631  12
632  11
633  8
634  16
635  6
636  8
637  10
638  7
639  6
640  2
641  10
642  9
643  5
644  8
645  13
646  8
647  5
648  4
649  7
650  5
651  0
652  3
653  3
654  2
655  4
656  2
657  2
658  3
659  1
660  3
661  2
662  2
663  2
664  5
665  1
666  4
667  0
668  1
669  1
670  3
671  2
672  1
673  6
674  1
675  0
676  2
677  3
678  3
679  4
680  0
681  2
682  1
683  4
684  3
685  1
686  3
687  1
688  1
689  4
690  3
691  3
692  3
693  1
694  3
695  1
696  4
697  1
698  2
699  2
700  3
701  1
702  0
703  3
704  4
705  3
706  1
707  1
708  1
709  2
710  1
711  0
712  1
713  1
714  3
715  1
716  0
717  0
718  0
719  0
720  1
721  2
722  3
723  3
724  1
725  1
726  0
727  1
728  1
729  1
730  2
731  0
732  0
733  3
734  3
735  0
736  2
737  2
738  0
739  0
740  0
741  1
742  1
743  0
744  0
745  1
746  0
747  0
748  2
749  1
750  1
751  1
752  0
753  1
754  0
755  0
756  0
757  1
758  1
759  1
760  1
761  0
762  1
763  0
764  1
765  1
766  1
767  0
768  1
769  1
770  3
771  0
772  0
773  1
774  0
775  0
776  0
777  0
778  0
779  1
780  0
781  0
782  0
783  2
784  0
785  0
786  0
787  2
788  0
789  1
790  0
791  0
792  1
793  1
794  1
795  0
796  2
797  0
798  0
799  1
800  2
801  1
802  0
803  0
804  3
805  4
806  1
807  3
808  3
809  3
810  4
811  9
812  9
813  5
814  11
815  11
816  131
817  57
818  32
819  0
820  1
821  0
822  0
823  0
824  0
825  0
826  0
827  0
828  0
829  0
830  0
831  0
832  0
833  0
834  0
835  0
836  0
837  0
838  0
839  0
840  0
841  0
842  0
843  0
844  0
845  0
846  0
847  0
848  0
849  0
850  0
851  0
852  0
853  0
854  0
855  0
856  0
857  0
858  0
859  0
860  0
861  0
862  0
863  0
864  0
865  0
866  0
867  0
868  0
869  0
870  0
871  0
872  0
873  0
874  0
875  0
876  0
877  0
878  0
879  0
880  0
881  0
882  0
883  0
884  0
885  0
886  0
887  0
888  0
889  0
890  0
891  0
892  0
893  0
894  0
895  0
896  0
897  0
898  0
899  0
900  0
901  0
902  0
903  0
904  0
905  0
906  0
907  0
908  0
909  0
910  0
911  0
912  0
913  0
914  0
915  0
916  0
917  0
918  0
919  0
920  0
921  0
922  0
923  0
924  0
925  0
926  0
927  0
928  0
929  0
930  0
931  0
932  0
933  0
934  0
935  0
936  0
937  0
938  0
939  0
940  0
941  0
942  0
943  0
944  0
945  0
946  0
947  0
948  0
949  0
950  0
951  0
952  0
953  0
954  0
955  0
956  0
957  1
958  0
959  0
960  0
961  0
962  0
963  0
964  0
965  0
966  0
967  0
968  0
969  0
970  1
971  0
972  0
973  2
974  0
975  0
976  0
977  0
978  0
979  0
980  0
981  0
982  0
983  0
984  1
985  0
986  1
987  0
988  0
989  0
990  0
991  0
992  0
993  0
994  0
995  0
996  0
997  0
998  0
999  0
1000  0
1001  2
1002  0
1003  0
1004  1
1005  2
1006  3
1007  1
1008  2
1009  4
1010  1
1011  5
1012  4
1013  8
1014  6
1015  5
1016  3
1017  3
1018  4
1019  13
1020  18
1021  25
1022  86
1023  355
