0  161
1  104
2  271
3  497
4  1032
5  1881
6  3370
7  4659
8  5228
9  3883
10  2342
11  1123
12  571
13  306
14  135
15  93
16  50
17  44
18  38
19  33
20  37
21  41
22  38
23  33
24  26
25  51
26  43
27  42
28  35
29  29
30  32
31  35
32  32
33  43
34  39
35  45
36  48
37  47
38  36
39  44
40  36
41  33
42  37
43  35
44  32
45  39
46  43
47  46
48  39
49  48
50  43
51  32
52  32
53  34
54  47
55  33
56  29
57  37
58  42
59  44
60  49
61  44
62  32
63  34
64  42
65  36
66  40
67  29
68  41
69  39
70  36
71  57
72  44
73  44
74  41
75  40
76  38
77  48
78  42
79  42
80  41
81  46
82  42
83  34
84  43
85  26
86  40
87  35
88  43
89  36
90  48
91  34
92  42
93  41
94  40
95  33
96  27
97  22
98  12
99  5
100  2
101  1
102  2
103  0
104  7
105  12
106  20
107  47
108  79
109  151
110  311
111  397
112  538
113  641
114  625
115  631
116  670
117  644
118  651
119  602
120  635
121  600
122  582
123  574
124  576
125  624
126  565
127  557
128  600
129  599
130  589
131  557
132  568
133  559
134  563
135  512
136  514
137  513
138  498
139  472
140  458
141  486
142  518
143  444
144  456
145  446
146  426
147  452
148  454
149  434
150  417
151  393
152  408
153  406
154  405
155  387
156  398
157  374
158  424
159  358
160  373
161  367
162  370
163  346
164  325
165  347
166  312
167  327
168  361
169  360
170  339
171  297
172  313
173  301
174  330
175  280
176  354
177  317
178  290
179  288
180  338
181  270
182  297
183  267
184  288
185  279
186  271
187  244
188  254
189  242
190  228
191  208
192  236
193  253
194  234
195  205
196  249
197  234
198  190
199  208
200  232
201  220
202  204
203  180
204  177
205  182
206  178
207  151
208  188
209  178
210  176
211  153
212  164
213  154
214  155
215  152
216  186
217  137
218  149
219  147
220  150
221  123
222  130
223  121
224  146
225  136
226  142
227  117
228  133
229  120
230  113
231  112
232  132
233  120
234  122
235  127
236  122
237  129
238  121
239  140
240  140
241  152
242  131
243  139
244  139
245  170
246  156
247  155
248  169
249  167
250  173
251  193
252  226
253  241
254  258
255  243
256  301
257  309
258  293
259  321
260  344
261  362
262  372
263  360
264  423
265  445
266  458
267  426
268  501
269  530
270  515
271  503
272  564
273  576
274  610
275  556
276  616
277  634
278  593
279  651
280  605
281  647
282  634
283  622
284  655
285  579
286  641
287  585
288  610
289  620
290  612
291  545
292  571
293  559
294  538
295  503
296  511
297  472
298  443
299  459
300  433
301  440
302  375
303  382
304  352
305  400
306  357
307  298
308  350
309  320
310  303
311  259
312  254
313  261
314  225
315  210
316  230
317  205
318  187
319  176
320  185
321  147
322  165
323  123
324  129
325  124
326  130
327  119
328  95
329  104
330  93
331  111
332  95
333  88
334  89
335  86
336  98
337  74
338  69
339  68
340  60
341  77
342  82
343  72
344  59
345  65
346  75
347  62
348  55
349  62
350  66
351  62
352  52
353  58
354  49
355  46
356  58
357  56
358  42
359  51
360  46
361  47
362  50
363  43
364  45
365  56
366  56
367  39
368  38
369  51
370  47
371  44
372  46
373  32
374  43
375  45
376  40
377  45
378  50
379  47
380  35
381  41
382  45
383  36
384  62
385  43
386  40
387  36
388  49
389  50
390  44
391  30
392  49
393  52
394  36
395  44
396  46
397  45
398  44
399  39
400  31
401  39
402  45
403  53
404  36
405  40
406  59
407  42
408  47
409  33
410  44
411  48
412  43
413  56
414  42
415  46
416  56
417  32
418  44
419  30
420  44
421  60
422  41
423  28
424  40
425  36
426  36
427  44
428  49
429  41
430  44
431  31
432  41
433  47
434  51
435  38
436  43
437  41
438  38
439  37
440  47
441  49
442  23
443  47
444  46
445  40
446  50
447  31
448  48
449  40
450  39
451  43
452  50
453  44
454  57
455  47
456  58
457  48
458  49
459  40
460  45
461  42
462  53
463  41
464  39
465  48
466  51
467  35
468  39
469  43
470  47
471  35
472  44
473  50
474  44
475  39
476  45
477  28
478  41
479  39
480  53
481  51
482  50
483  39
484  44
485  39
486  39
487  51
488  47
489  54
490  49
491  32
492  52
493  45
494  44
495  41
496  44
497  43
498  48
499  51
500  48
501  46
502  42
503  25
504  47
505  43
506  47
507  29
508  45
509  32
510  48
511  48
512  41
513  47
514  32
515  34
516  44
517  44
518  36
519  39
520  43
521  49
522  44
523  41
524  33
525  38
526  36
527  38
528  48
529  43
530  36
531  43
532  43
533  44
534  25
535  28
536  31
537  46
538  39
539  25
540  28
541  35
542  44
543  36
544  41
545  24
546  46
547  29
548  34
549  24
550  35
551  33
552  36
553  33
554  33
555  41
556  37
557  38
558  21
559  30
560  30
561  33
562  27
563  32
564  32
565  36
566  16
567  26
568  25
569  30
570  35
571  27
572  35
573  28
574  33
575  37
576  27
577  19
578  31
579  29
580  26
581  19
582  23
583  21
584  25
585  19
586  19
587  31
588  33
589  28
590  19
591  25
592  24
593  34
594  28
595  31
596  26
597  28
598  17
599  18
600  35
601  32
602  17
603  27
604  28
605  43
606  30
607  27
608  31
609  20
610  35
611  27
612  23
613  20
614  36
615  25
616  38
617  27
618  38
619  37
620  36
621  33
622  38
623  37
624  38
625  38
626  38
627  46
628  41
629  43
630  45
631  43
632  54
633  49
634  51
635  49
636  46
637  46
638  65
639  58
640  61
641  66
642  65
643  56
644  56
645  72
646  61
647  64
648  68
649  46
650  60
651  63
652  64
653  75
654  73
655  69
656  88
657  74
658  64
659  56
660  74
661  54
662  73
663  68
664  77
665  65
666  66
667  55
668  58
669  63
670  75
671  70
672  63
673  72
674  83
675  66
676  66
677  68
678  71
679  62
680  54
681  67
682  68
683  64
684  46
685  52
686  63
687  44
688  46
689  58
690  51
691  49
692  50
693  48
694  47
695  49
696  39
697  51
698  36
699  50
700  34
701  47
702  36
703  39
704  41
705  36
706  35
707  28
708  37
709  29
710  32
711  34
712  31
713  36
714  29
715  31
716  30
717  25
718  20
719  35
720  29
721  34
722  30
723  28
724  27
725  25
726  28
727  25
728  22
729  20
730  17
731  21
732  21
733  19
734  28
735  16
736  11
737  17
738  21
739  19
740  17
741  18
742  19
743  10
744  7
745  24
746  22
747  17
748  17
749  15
750  12
751  14
752  9
753  10
754  10
755  12
756  5
757  8
758  10
759  7
760  11
761  12
762  11
763  12
764  6
765  15
766  9
767  7
768  7
769  9
770  5
771  3
772  5
773  5
774  5
775  8
776  1
777  4
778  9
779  7
780  5
781  9
782  8
783  2
784  3
785  5
786  4
787  4
788  7
789  5
790  1
791  6
792  8
793  6
794  6
795  5
796  10
797  2
798  6
799  7
800  3
801  1
802  1
803  2
804  3
805  3
806  6
807  3
808  3
809  2
810  2
811  1
812  2
813  2
814  3
815  0
816  12
817  8
818  4
819  3
820  1
821  3
822  1
823  5
824  1
825  4
826  3
827  6
828  4
829  7
830  11
831  6
832  9
833  14
834  19
835  19
836  26
837  28
838  29
839  19
840  27
841  22
842  109
843  53
844  67
845  25
846  0
847  0
848  0
849  0
850  0
851  0
852  0
853  0
854  0
855  0
856  0
857  0
858  0
859  0
860  0
861  0
862  0
863  0
864  0
865  0
866  0
867  0
868  0
869  0
870  0
871  0
872  0
873  0
874  0
875  0
876  0
877  0
878  0
879  0
880  0
881  0
882  0
883  0
884  0
885  0
886  0
887  0
888  0
889  0
890  0
891  0
892  0
893  0
894  0
895  0
896  0
897  0
898  0
899  0
900  0
901  0
902  0
903  0
904  0
905  0
906  0
907  0
908  0
909  0
910  0
911  0
912  0
913  0
914  0
915  0
916  0
917  0
918  0
919  0
920  0
921  0
922  0
923  0
924  0
925  0
926  0
927  0
928  0
929  0
930  0
931  0
932  0
933  0
934  0
935  0
936  0
937  0
938  0
939  0
940  0
941  0
942  0
943  0
944  0
945  0
946  0
947  0
948  0
949  0
950  0
951  0
952  2
953  0
954  0
955  0
956  0
957  0
958  0
959  0
960  0
961  0
962  0
963  0
964  0
965  0
966  0
967  0
968  0
969  0
970  0
971  0
972  0
973  0
974  1
975  0
976  0
977  0
978  0
979  0
980  0
981  0
982  0
983  1
984  1
985  0
986  0
987  0
988  0
989  0
990  0
991  0
992  0
993  0
994  1
995  0
996  0
997  0
998  0
999  0
1000  0
1001  0
1002  0
1003  0
1004  0
1005  0
1006  0
1007  0
1008  0
1009  0
1010  0
1011  0
1012  0
1013  1
1014  1
1015  0
1016  1
1017  1
1018  2
1019  0
1020  0
1021  0
1022  0
1023  5
