0  695
1  828
2  1672
3  4065
4  11497
5  21907
6  27095
7  18240
8  8901
9  3156
10  1367
11  829
12  504
13  329
14  213
15  161
16  128
17  106
18  89
19  74
20  69
21  53
22  59
23  44
24  52
25  47
26  37
27  30
28  32
29  30
30  29
31  23
32  20
33  21
34  23
35  15
36  24
37  22
38  25
39  21
40  24
41  20
42  23
43  30
44  25
45  19
46  21
47  30
48  30
49  20
50  26
51  19
52  23
53  20
54  31
55  25
56  18
57  18
58  21
59  26
60  26
61  27
62  28
63  21
64  34
65  22
66  26
67  25
68  26
69  22
70  28
71  36
72  25
73  29
74  24
75  22
76  31
77  23
78  24
79  19
80  23
81  32
82  27
83  23
84  37
85  31
86  24
87  28
88  23
89  26
90  31
91  21
92  26
93  28
94  19
95  27
96  27
97  32
98  24
99  38
100  17
101  28
102  26
103  21
104  27
105  29
106  33
107  24
108  14
109  22
110  31
111  23
112  20
113  25
114  28
115  20
116  21
117  19
118  35
119  18
120  19
121  39
122  33
123  61
124  119
125  257
126  404
127  548
128  580
129  557
130  572
131  531
132  524
133  564
134  581
135  479
136  541
137  544
138  478
139  483
140  502
141  474
142  420
143  415
144  470
145  461
146  430
147  464
148  473
149  465
150  434
151  432
152  427
153  402
154  390
155  414
156  406
157  357
158  380
159  363
160  394
161  377
162  411
163  368
164  363
165  373
166  375
167  304
168  377
169  364
170  356
171  307
172  328
173  333
174  291
175  314
176  275
177  297
178  291
179  311
180  304
181  276
182  274
183  255
184  253
185  221
186  220
187  222
188  255
189  225
190  232
191  210
192  230
193  201
194  200
195  216
196  212
197  200
198  198
199  209
200  219
201  166
202  211
203  189
204  211
205  211
206  196
207  209
208  172
209  193
210  211
211  204
212  195
213  211
214  176
215  210
216  196
217  172
218  191
219  186
220  182
221  206
222  193
223  201
224  187
225  210
226  206
227  205
228  215
229  223
230  216
231  213
232  265
233  262
234  256
235  230
236  262
237  286
238  286
239  301
240  297
241  320
242  358
243  333
244  359
245  368
246  431
247  390
248  456
249  463
250  446
251  489
252  501
253  521
254  523
255  485
256  609
257  543
258  549
259  553
260  541
261  560
262  518
263  486
264  507
265  508
266  497
267  484
268  456
269  413
270  386
271  357
272  357
273  320
274  302
275  262
276  229
277  215
278  172
279  172
280  169
281  145
282  137
283  137
284  116
285  82
286  99
287  73
288  81
289  80
290  65
291  64
292  64
293  74
294  59
295  57
296  58
297  50
298  61
299  59
300  50
301  48
302  37
303  44
304  53
305  50
306  50
307  37
308  42
309  49
310  48
311  54
312  47
313  44
314  58
315  43
316  51
317  61
318  61
319  31
320  45
321  45
322  35
323  39
324  46
325  52
326  40
327  44
328  42
329  39
330  50
331  51
332  47
333  59
334  47
335  42
336  48
337  35
338  42
339  59
340  48
341  38
342  37
343  44
344  49
345  41
346  49
347  42
348  51
349  40
350  40
351  34
352  37
353  48
354  38
355  54
356  43
357  41
358  37
359  44
360  52
361  38
362  44
363  54
364  40
365  44
366  56
367  48
368  36
369  42
370  40
371  50
372  36
373  39
374  42
375  41
376  41
377  40
378  42
379  39
380  37
381  41
382  45
383  34
384  33
385  32
386  42
387  33
388  47
389  41
390  38
391  34
392  57
393  27
394  42
395  43
396  42
397  42
398  32
399  23
400  44
401  37
402  40
403  47
404  46
405  50
406  40
407  33
408  50
409  39
410  44
411  40
412  33
413  46
414  38
415  41
416  44
417  39
418  31
419  44
420  41
421  34
422  41
423  35
424  43
425  47
426  45
427  60
428  34
429  42
430  34
431  32
432  35
433  32
434  44
435  44
436  31
437  45
438  31
439  35
440  39
441  44
442  46
443  40
444  34
445  44
446  40
447  42
448  39
449  35
450  41
451  50
452  45
453  36
454  44
455  31
456  34
457  43
458  42
459  39
460  52
461  45
462  28
463  42
464  43
465  47
466  35
467  46
468  43
469  55
470  39
471  57
472  29
473  34
474  41
475  48
476  36
477  38
478  35
479  40
480  40
481  39
482  44
483  41
484  33
485  39
486  43
487  29
488  38
489  39
490  39
491  48
492  39
493  44
494  27
495  43
496  40
497  39
498  31
499  48
500  36
501  26
502  31
503  38
504  41
505  36
506  33
507  38
508  32
509  24
510  26
511  31
512  27
513  38
514  33
515  32
516  31
517  27
518  43
519  31
520  24
521  21
522  24
523  22
524  30
525  19
526  29
527  21
528  20
529  25
530  21
531  25
532  28
533  31
534  13
535  18
536  21
537  22
538  21
539  26
540  19
541  13
542  16
543  18
544  19
545  13
546  14
547  9
548  22
549  18
550  22
551  14
552  24
553  18
554  26
555  17
556  13
557  9
558  18
559  14
560  21
561  19
562  22
563  20
564  18
565  24
566  12
567  12
568  26
569  16
570  15
571  19
572  25
573  22
574  21
575  18
576  19
577  17
578  23
579  19
580  27
581  25
582  26
583  25
584  20
585  26
586  32
587  35
588  36
589  30
590  32
591  38
592  28
593  40
594  48
595  41
596  42
597  34
598  40
599  52
600  58
601  51
602  55
603  55
604  53
605  53
606  61
607  52
608  79
609  67
610  55
611  49
612  59
613  37
614  62
615  54
616  52
617  52
618  73
619  55
620  42
621  49
622  57
623  47
624  49
625  57
626  49
627  52
628  53
629  60
630  48
631  48
632  44
633  38
634  38
635  38
636  42
637  35
638  41
639  26
640  27
641  29
642  39
643  16
644  29
645  17
646  13
647  21
648  24
649  24
650  12
651  15
652  16
653  13
654  13
655  10
656  14
657  4
658  6
659  17
660  7
661  7
662  2
663  4
664  6
665  4
666  6
667  6
668  4
669  4
670  5
671  2
672  1
673  5
674  3
675  5
676  3
677  1
678  3
679  4
680  1
681  0
682  4
683  3
684  2
685  4
686  3
687  2
688  1
689  4
690  2
691  3
692  1
693  0
694  2
695  3
696  5
697  1
698  1
699  0
700  3
701  4
702  6
703  3
704  1
705  2
706  1
707  2
708  1
709  2
710  1
711  4
712  3
713  5
714  3
715  1
716  3
717  3
718  1
719  2
720  0
721  3
722  2
723  2
724  2
725  1
726  2
727  4
728  0
729  1
730  2
731  1
732  2
733  1
734  3
735  1
736  1
737  1
738  0
739  0
740  1
741  1
742  0
743  0
744  0
745  1
746  3
747  2
748  4
749  2
750  1
751  1
752  0
753  0
754  1
755  1
756  0
757  1
758  0
759  0
760  2
761  5
762  0
763  1
764  1
765  1
766  0
767  2
768  3
769  2
770  0
771  0
772  2
773  0
774  2
775  0
776  0
777  0
778  2
779  1
780  0
781  0
782  2
783  3
784  0
785  0
786  2
787  0
788  0
789  0
790  1
791  0
792  0
793  2
794  1
795  0
796  1
797  0
798  0
799  3
800  0
801  0
802  3
803  2
804  2
805  2
806  4
807  3
808  3
809  5
810  9
811  13
812  14
813  12
814  14
815  12
816  96
817  55
818  37
819  0
820  0
821  0
822  0
823  0
824  0
825  0
826  0
827  0
828  0
829  0
830  0
831  0
832  0
833  0
834  0
835  0
836  0
837  0
838  0
839  0
840  0
841  0
842  0
843  0
844  0
845  0
846  0
847  0
848  0
849  0
850  0
851  0
852  0
853  0
854  0
855  0
856  0
857  0
858  0
859  0
860  0
861  0
862  0
863  0
864  0
865  0
866  0
867  0
868  0
869  0
870  0
871  0
872  0
873  0
874  0
875  0
876  0
877  0
878  0
879  0
880  0
881  0
882  0
883  0
884  0
885  0
886  0
887  0
888  0
889  0
890  0
891  0
892  0
893  0
894  0
895  0
896  0
897  0
898  0
899  0
900  0
901  0
902  0
903  0
904  0
905  0
906  0
907  0
908  0
909  0
910  0
911  0
912  0
913  0
914  0
915  0
916  0
917  0
918  0
919  0
920  0
921  0
922  0
923  0
924  0
925  0
926  0
927  0
928  0
929  0
930  0
931  0
932  0
933  0
934  0
935  0
936  0
937  0
938  0
939  0
940  0
941  0
942  1
943  0
944  0
945  0
946  0
947  3
948  0
949  2
950  1
951  0
952  0
953  1
954  0
955  0
956  0
957  0
958  0
959  0
960  1
961  0
962  0
963  0
964  1
965  0
966  0
967  1
968  0
969  1
970  0
971  2
972  2
973  1
974  0
975  1
976  0
977  1
978  1
979  0
980  0
981  1
982  0
983  0
984  1
985  0
986  1
987  0
988  1
989  0
990  1
991  0
992  3
993  0
994  0
995  1
996  1
997  0
998  1
999  0
1000  0
1001  0
1002  0
1003  2
1004  4
1005  1
1006  1
1007  2
1008  6
1009  9
1010  7
1011  9
1012  7
1013  6
1014  8
1015  9
1016  6
1017  10
1018  16
1019  21
1020  32
1021  72
1022  115
1023  551
