0  192
1  323
2  548
3  1111
4  2419
5  4718
6  8483
7  12005
8  13724
9  9795
10  5746
11  2904
12  1182
13  598
14  248
15  136
16  72
17  33
18  26
19  13
20  15
21  4
22  9
23  12
24  9
25  7
26  12
27  16
28  13
29  12
30  14
31  9
32  12
33  8
34  19
35  10
36  14
37  13
38  15
39  9
40  10
41  13
42  14
43  13
44  17
45  12
46  14
47  10
48  10
49  15
50  10
51  8
52  16
53  10
54  13
55  13
56  18
57  19
58  16
59  16
60  18
61  12
62  14
63  21
64  21
65  10
66  15
67  14
68  12
69  11
70  26
71  14
72  18
73  10
74  16
75  17
76  21
77  21
78  15
79  11
80  18
81  19
82  16
83  18
84  15
85  22
86  26
87  17
88  11
89  15
90  17
91  18
92  11
93  11
94  21
95  13
96  15
97  9
98  4
99  1
100  1
101  2
102  2
103  3
104  10
105  20
106  35
107  53
108  145
109  262
110  503
111  701
112  877
113  943
114  965
115  905
116  993
117  915
118  930
119  913
120  939
121  899
122  913
123  911
124  906
125  905
126  876
127  811
128  844
129  796
130  796
131  833
132  767
133  809
134  757
135  732
136  728
137  771
138  689
139  672
140  683
141  734
142  647
143  662
144  651
145  673
146  623
147  616
148  664
149  623
150  624
151  612
152  610
153  596
154  577
155  564
156  571
157  548
158  528
159  514
160  568
161  548
162  535
163  524
164  526
165  490
166  497
167  491
168  431
169  506
170  445
171  493
172  422
173  438
174  434
175  449
176  444
177  409
178  443
179  452
180  435
181  423
182  444
183  417
184  452
185  405
186  442
187  404
188  406
189  398
190  398
191  355
192  413
193  360
194  388
195  355
196  366
197  337
198  337
199  329
200  348
201  385
202  376
203  305
204  320
205  352
206  311
207  341
208  356
209  294
210  327
211  266
212  293
213  300
214  321
215  288
216  300
217  296
218  270
219  283
220  304
221  323
222  251
223  275
224  314
225  263
226  265
227  289
228  240
229  287
230  249
231  248
232  265
233  261
234  268
235  241
236  257
237  280
238  251
239  242
240  234
241  289
242  264
243  275
244  242
245  263
246  246
247  263
248  257
249  255
250  260
251  277
252  278
253  281
254  298
255  252
256  314
257  306
258  280
259  284
260  306
261  318
262  298
263  326
264  312
265  314
266  295
267  320
268  321
269  344
270  337
271  323
272  338
273  346
274  269
275  319
276  299
277  346
278  338
279  327
280  352
281  313
282  316
283  326
284  329
285  312
286  293
287  297
288  305
289  303
290  273
291  272
292  284
293  241
294  278
295  263
296  240
297  246
298  202
299  218
300  225
301  222
302  211
303  211
304  193
305  188
306  170
307  188
308  155
309  173
310  147
311  173
312  140
313  136
314  127
315  140
316  147
317  152
318  127
319  119
320  112
321  128
322  121
323  111
324  116
325  109
326  115
327  97
328  113
329  94
330  111
331  88
332  89
333  110
334  84
335  78
336  85
337  71
338  80
339  78
340  65
341  81
342  70
343  57
344  78
345  85
346  85
347  59
348  65
349  76
350  59
351  69
352  72
353  51
354  59
355  70
356  53
357  79
358  58
359  56
360  69
361  49
362  67
363  55
364  63
365  66
366  73
367  72
368  72
369  57
370  64
371  50
372  64
373  59
374  49
375  53
376  68
377  59
378  69
379  63
380  61
381  65
382  54
383  68
384  46
385  56
386  54
387  69
388  53
389  52
390  68
391  55
392  56
393  60
394  43
395  65
396  52
397  49
398  56
399  66
400  52
401  56
402  73
403  60
404  70
405  55
406  60
407  47
408  45
409  62
410  48
411  58
412  48
413  54
414  52
415  58
416  49
417  58
418  59
419  58
420  53
421  54
422  45
423  60
424  56
425  58
426  47
427  64
428  52
429  58
430  54
431  42
432  55
433  40
434  57
435  56
436  50
437  41
438  52
439  41
440  50
441  43
442  57
443  54
444  48
445  55
446  43
447  43
448  36
449  51
450  38
451  48
452  57
453  38
454  54
455  50
456  51
457  59
458  61
459  49
460  52
461  37
462  54
463  60
464  41
465  50
466  48
467  42
468  47
469  56
470  49
471  42
472  48
473  59
474  42
475  52
476  55
477  50
478  62
479  39
480  55
481  50
482  57
483  52
484  56
485  45
486  37
487  40
488  52
489  72
490  49
491  43
492  45
493  52
494  49
495  36
496  43
497  49
498  47
499  38
500  34
501  46
502  42
503  45
504  43
505  54
506  45
507  51
508  44
509  47
510  42
511  34
512  47
513  55
514  46
515  57
516  64
517  48
518  49
519  49
520  49
521  51
522  47
523  49
524  44
525  47
526  49
527  37
528  31
529  46
530  34
531  42
532  50
533  44
534  37
535  33
536  44
537  28
538  33
539  47
540  41
541  33
542  41
543  30
544  39
545  42
546  41
547  37
548  42
549  36
550  39
551  36
552  43
553  32
554  34
555  35
556  42
557  39
558  39
559  32
560  35
561  33
562  33
563  38
564  32
565  39
566  46
567  27
568  44
569  36
570  44
571  42
572  40
573  26
574  28
575  33
576  32
577  28
578  31
579  36
580  23
581  34
582  29
583  26
584  29
585  24
586  24
587  36
588  33
589  21
590  32
591  27
592  30
593  27
594  35
595  26
596  30
597  35
598  34
599  26
600  17
601  24
602  39
603  30
604  31
605  31
606  33
607  25
608  25
609  26
610  30
611  34
612  21
613  26
614  34
615  52
616  36
617  30
618  40
619  35
620  32
621  38
622  38
623  34
624  31
625  39
626  41
627  39
628  28
629  39
630  45
631  45
632  38
633  47
634  45
635  41
636  45
637  53
638  44
639  42
640  46
641  60
642  50
643  42
644  45
645  45
646  36
647  49
648  57
649  52
650  51
651  62
652  45
653  51
654  61
655  56
656  51
657  55
658  60
659  42
660  51
661  51
662  44
663  44
664  52
665  53
666  43
667  45
668  47
669  56
670  45
671  47
672  50
673  49
674  42
675  47
676  58
677  36
678  42
679  39
680  39
681  42
682  36
683  33
684  38
685  36
686  39
687  43
688  36
689  38
690  39
691  55
692  37
693  42
694  36
695  24
696  30
697  39
698  36
699  31
700  31
701  35
702  33
703  31
704  20
705  29
706  27
707  23
708  16
709  32
710  30
711  33
712  24
713  19
714  18
715  18
716  18
717  20
718  18
719  20
720  11
721  23
722  16
723  14
724  16
725  20
726  19
727  16
728  19
729  19
730  14
731  17
732  9
733  12
734  13
735  12
736  18
737  19
738  14
739  14
740  11
741  12
742  11
743  12
744  14
745  9
746  9
747  14
748  7
749  5
750  12
751  12
752  14
753  10
754  8
755  7
756  7
757  6
758  12
759  5
760  3
761  9
762  12
763  12
764  11
765  14
766  6
767  6
768  11
769  8
770  8
771  12
772  9
773  11
774  9
775  4
776  12
777  9
778  5
779  10
780  4
781  4
782  5
783  5
784  7
785  4
786  9
787  6
788  3
789  4
790  4
791  4
792  6
793  7
794  3
795  5
796  6
797  3
798  5
799  5
800  1
801  2
802  2
803  4
804  2
805  4
806  4
807  3
808  6
809  2
810  5
811  2
812  3
813  6
814  0
815  4
816  19
817  8
818  1
819  4
820  1
821  3
822  1
823  8
824  5
825  1
826  4
827  4
828  4
829  9
830  11
831  14
832  19
833  16
834  18
835  31
836  34
837  34
838  38
839  25
840  52
841  79
842  209
843  119
844  160
845  0
846  0
847  0
848  0
849  0
850  0
851  0
852  0
853  0
854  0
855  0
856  0
857  0
858  0
859  0
860  0
861  0
862  0
863  0
864  0
865  0
866  0
867  0
868  0
869  0
870  0
871  0
872  0
873  0
874  0
875  0
876  0
877  0
878  0
879  0
880  0
881  0
882  0
883  0
884  0
885  0
886  0
887  0
888  0
889  0
890  0
891  0
892  0
893  0
894  0
895  0
896  0
897  0
898  0
899  0
900  0
901  0
902  0
903  0
904  0
905  0
906  0
907  0
908  0
909  0
910  0
911  0
912  0
913  0
914  0
915  0
916  0
917  0
918  0
919  0
920  0
921  0
922  0
923  0
924  0
925  0
926  0
927  0
928  0
929  0
930  0
931  0
932  0
933  0
934  0
935  0
936  0
937  0
938  0
939  0
940  0
941  0
942  0
943  0
944  0
945  0
946  1
947  0
948  0
949  0
950  0
951  0
952  0
953  0
954  0
955  0
956  0
957  0
958  0
959  0
960  0
961  1
962  0
963  0
964  0
965  0
966  1
967  0
968  1
969  0
970  2
971  0
972  0
973  0
974  1
975  0
976  0
977  0
978  1
979  0
980  0
981  0
982  0
983  0
984  0
985  0
986  0
987  0
988  0
989  0
990  0
991  0
992  0
993  0
994  0
995  0
996  1
997  1
998  0
999  0
1000  0
1001  0
1002  0
1003  0
1004  0
1005  0
1006  0
1007  0
1008  0
1009  0
1010  0
1011  2
1012  0
1013  0
1014  0
1015  1
1016  1
1017  2
1018  0
1019  0
1020  1
1021  0
1022  1
1023  7
