0  1657
1  2379
2  5203
3  12404
4  25845
5  39143
6  41935
7  29578
8  17439
9  7146
10  3089
11  1608
12  995
13  562
14  421
15  264
16  247
17  231
18  173
19  155
20  156
21  130
22  128
23  80
24  74
25  76
26  54
27  52
28  51
29  32
30  26
31  30
32  30
33  27
34  21
35  13
36  12
37  10
38  7
39  6
40  13
41  5
42  11
43  7
44  9
45  12
46  12
47  13
48  11
49  4
50  9
51  7
52  9
53  5
54  7
55  9
56  12
57  3
58  4
59  9
60  10
61  11
62  5
63  2
64  15
65  6
66  7
67  7
68  10
69  8
70  13
71  5
72  11
73  7
74  5
75  6
76  13
77  14
78  5
79  10
80  13
81  7
82  10
83  12
84  11
85  9
86  9
87  12
88  16
89  9
90  15
91  7
92  8
93  8
94  10
95  8
96  9
97  7
98  5
99  9
100  11
101  6
102  7
103  13
104  16
105  6
106  9
107  8
108  6
109  5
110  6
111  8
112  5
113  5
114  9
115  14
116  6
117  14
118  16
119  16
120  22
121  36
122  53
123  93
124  227
125  353
126  453
127  474
128  554
129  537
130  489
131  524
132  530
133  543
134  489
135  484
136  501
137  441
138  470
139  457
140  462
141  497
142  496
143  461
144  430
145  438
146  471
147  421
148  453
149  421
150  388
151  426
152  383
153  387
154  394
155  405
156  364
157  405
158  417
159  380
160  401
161  380
162  378
163  407
164  361
165  323
166  345
167  329
168  318
169  347
170  327
171  309
172  307
173  295
174  293
175  282
176  295
177  241
178  240
179  254
180  227
181  256
182  188
183  184
184  230
185  185
186  197
187  187
188  169
189  155
190  155
191  144
192  170
193  159
194  135
195  145
196  145
197  155
198  154
199  119
200  154
201  140
202  152
203  108
204  124
205  144
206  116
207  138
208  148
209  137
210  141
211  139
212  125
213  136
214  144
215  159
216  148
217  152
218  166
219  166
220  143
221  172
222  169
223  171
224  202
225  188
226  208
227  217
228  230
229  205
230  218
231  238
232  296
233  263
234  260
235  310
236  334
237  362
238  389
239  390
240  416
241  487
242  516
243  534
244  551
245  575
246  614
247  676
248  638
249  761
250  758
251  780
252  821
253  810
254  883
255  789
256  886
257  853
258  878
259  827
260  864
261  824
262  868
263  750
264  758
265  746
266  661
267  641
268  615
269  537
270  505
271  400
272  421
273  379
274  354
275  321
276  277
277  241
278  242
279  196
280  187
281  162
282  143
283  111
284  110
285  112
286  82
287  61
288  82
289  62
290  55
291  71
292  69
293  59
294  72
295  55
296  58
297  47
298  37
299  54
300  56
301  58
302  53
303  65
304  52
305  59
306  55
307  52
308  51
309  60
310  54
311  50
312  39
313  38
314  50
315  59
316  49
317  44
318  59
319  41
320  45
321  38
322  42
323  54
324  38
325  46
326  55
327  40
328  42
329  51
330  42
331  47
332  50
333  46
334  42
335  40
336  39
337  41
338  42
339  45
340  45
341  43
342  41
343  34
344  47
345  38
346  43
347  40
348  48
349  34
350  47
351  36
352  44
353  38
354  55
355  50
356  43
357  51
358  49
359  46
360  54
361  46
362  44
363  49
364  47
365  47
366  45
367  33
368  43
369  53
370  38
371  37
372  58
373  43
374  47
375  45
376  44
377  39
378  40
379  35
380  41
381  45
382  42
383  41
384  37
385  38
386  54
387  37
388  44
389  48
390  41
391  44
392  55
393  51
394  48
395  39
396  46
397  50
398  55
399  42
400  56
401  46
402  47
403  42
404  47
405  36
406  49
407  32
408  49
409  48
410  46
411  48
412  62
413  55
414  56
415  44
416  44
417  52
418  48
419  41
420  42
421  51
422  48
423  39
424  57
425  41
426  44
427  41
428  50
429  52
430  48
431  38
432  50
433  41
434  49
435  58
436  48
437  53
438  49
439  60
440  38
441  55
442  42
443  39
444  35
445  52
446  50
447  35
448  56
449  54
450  63
451  53
452  50
453  50
454  47
455  48
456  57
457  51
458  50
459  50
460  48
461  39
462  40
463  39
464  55
465  46
466  41
467  40
468  45
469  55
470  41
471  37
472  51
473  46
474  56
475  51
476  54
477  48
478  45
479  43
480  55
481  42
482  48
483  43
484  40
485  51
486  38
487  50
488  60
489  51
490  61
491  38
492  42
493  56
494  62
495  48
496  49
497  51
498  44
499  45
500  43
501  37
502  46
503  29
504  39
505  31
506  48
507  35
508  38
509  46
510  49
511  42
512  33
513  33
514  43
515  47
516  33
517  32
518  29
519  26
520  32
521  18
522  30
523  36
524  24
525  32
526  32
527  18
528  23
529  21
530  25
531  23
532  30
533  28
534  18
535  25
536  22
537  31
538  19
539  15
540  17
541  24
542  11
543  20
544  16
545  29
546  14
547  14
548  19
549  16
550  18
551  18
552  13
553  17
554  18
555  15
556  16
557  14
558  17
559  15
560  26
561  23
562  20
563  16
564  26
565  22
566  25
567  22
568  25
569  23
570  31
571  29
572  33
573  27
574  36
575  21
576  42
577  21
578  33
579  31
580  44
581  41
582  40
583  36
584  41
585  49
586  44
587  46
588  43
589  56
590  50
591  51
592  47
593  68
594  67
595  60
596  57
597  80
598  54
599  66
600  65
601  65
602  65
603  68
604  75
605  78
606  83
607  86
608  68
609  76
610  66
611  64
612  83
613  70
614  75
615  69
616  59
617  75
618  69
619  71
620  68
621  64
622  67
623  56
624  74
625  54
626  66
627  65
628  41
629  72
630  56
631  40
632  48
633  48
634  53
635  31
636  37
637  39
638  35
639  29
640  34
641  24
642  27
643  29
644  22
645  17
646  17
647  18
648  10
649  13
650  17
651  15
652  7
653  15
654  8
655  14
656  9
657  9
658  7
659  7
660  9
661  4
662  3
663  9
664  3
665  2
666  5
667  2
668  6
669  5
670  5
671  5
672  2
673  2
674  3
675  3
676  2
677  3
678  1
679  2
680  2
681  2
682  5
683  3
684  5
685  3
686  4
687  2
688  5
689  1
690  3
691  1
692  3
693  1
694  2
695  2
696  3
697  4
698  0
699  4
700  2
701  2
702  4
703  3
704  6
705  4
706  1
707  1
708  2
709  2
710  5
711  3
712  3
713  1
714  1
715  3
716  7
717  1
718  3
719  2
720  3
721  3
722  5
723  2
724  2
725  0
726  0
727  1
728  0
729  2
730  2
731  1
732  2
733  1
734  3
735  1
736  2
737  0
738  3
739  0
740  1
741  0
742  1
743  0
744  3
745  0
746  1
747  0
748  1
749  0
750  4
751  0
752  3
753  0
754  1
755  2
756  0
757  1
758  0
759  0
760  0
761  0
762  0
763  4
764  0
765  3
766  0
767  0
768  0
769  1
770  0
771  0
772  1
773  0
774  0
775  0
776  1
777  1
778  1
779  1
780  1
781  1
782  1
783  0
784  0
785  0
786  1
787  0
788  1
789  1
790  1
791  0
792  0
793  0
794  2
795  2
796  2
797  1
798  1
799  0
800  0
801  0
802  1
803  4
804  3
805  1
806  6
807  5
808  3
809  9
810  19
811  11
812  10
813  17
814  57
815  71
816  41
817  8
818  0
819  0
820  0
821  0
822  0
823  0
824  0
825  0
826  0
827  0
828  0
829  0
830  0
831  0
832  0
833  0
834  0
835  0
836  0
837  0
838  0
839  0
840  0
841  0
842  0
843  0
844  0
845  0
846  0
847  0
848  0
849  0
850  0
851  0
852  0
853  0
854  0
855  0
856  0
857  0
858  0
859  0
860  0
861  0
862  0
863  0
864  0
865  0
866  0
867  0
868  0
869  0
870  0
871  0
872  0
873  0
874  0
875  0
876  0
877  0
878  0
879  0
880  0
881  0
882  0
883  0
884  0
885  0
886  0
887  0
888  0
889  0
890  0
891  0
892  0
893  0
894  0
895  0
896  0
897  0
898  0
899  0
900  0
901  0
902  0
903  0
904  0
905  0
906  0
907  0
908  0
909  0
910  0
911  0
912  0
913  0
914  0
915  0
916  0
917  0
918  0
919  0
920  0
921  0
922  0
923  0
924  0
925  0
926  0
927  0
928  0
929  0
930  0
931  0
932  0
933  0
934  0
935  0
936  0
937  0
938  0
939  0
940  0
941  0
942  0
943  0
944  0
945  2
946  4
947  0
948  2
949  1
950  3
951  1
952  2
953  0
954  0
955  0
956  0
957  1
958  1
959  0
960  0
961  0
962  1
963  1
964  1
965  1
966  1
967  1
968  1
969  0
970  0
971  2
972  2
973  1
974  1
975  0
976  0
977  4
978  1
979  2
980  0
981  2
982  1
983  0
984  2
985  0
986  0
987  3
988  1
989  6
990  3
991  1
992  6
993  2
994  6
995  11
996  6
997  11
998  16
999  15
1000  17
1001  13
1002  17
1003  8
1004  17
1005  15
1006  17
1007  9
1008  17
1009  20
1010  20
1011  15
1012  16
1013  10
1014  11
1015  14
1016  18
1017  26
1018  38
1019  67
1020  82
1021  164
1022  304
1023  1274
