0  1332
1  1962
2  4349
3  9975
4  21249
5  32792
6  34809
7  25251
8  14218
9  6077
10  2573
11  1390
12  849
13  582
14  483
15  341
16  282
17  291
18  238
19  257
20  231
21  221
22  199
23  178
24  184
25  153
26  156
27  166
28  143
29  150
30  151
31  143
32  143
33  154
34  108
35  137
36  127
37  126
38  114
39  124
40  136
41  128
42  124
43  142
44  115
45  111
46  152
47  133
48  133
49  93
50  138
51  134
52  114
53  115
54  102
55  117
56  105
57  108
58  122
59  119
60  107
61  95
62  122
63  111
64  107
65  99
66  117
67  122
68  110
69  109
70  103
71  106
72  126
73  106
74  106
75  94
76  124
77  108
78  115
79  103
80  154
81  116
82  129
83  127
84  108
85  133
86  135
87  111
88  120
89  123
90  136
91  111
92  155
93  129
94  121
95  127
96  154
97  127
98  144
99  158
100  146
101  130
102  139
103  126
104  132
105  147
106  131
107  103
108  134
109  130
110  129
111  112
112  99
113  122
114  99
115  124
116  110
117  118
118  91
119  96
120  99
121  124
122  148
123  202
124  301
125  392
126  488
127  499
128  581
129  541
130  507
131  522
132  483
133  514
134  487
135  488
136  493
137  509
138  446
139  466
140  474
141  404
142  459
143  374
144  474
145  405
146  428
147  415
148  440
149  404
150  440
151  337
152  423
153  353
154  406
155  387
156  406
157  392
158  388
159  396
160  418
161  373
162  385
163  365
164  359
165  348
166  343
167  342
168  364
169  352
170  317
171  340
172  287
173  306
174  274
175  310
176  271
177  264
178  274
179  237
180  256
181  227
182  257
183  231
184  225
185  194
186  170
187  201
188  176
189  175
190  179
191  156
192  153
193  155
194  168
195  134
196  172
197  156
198  157
199  146
200  159
201  131
202  119
203  133
204  127
205  149
206  134
207  120
208  123
209  143
210  113
211  143
212  130
213  129
214  141
215  128
216  159
217  152
218  157
219  154
220  136
221  148
222  159
223  161
224  166
225  196
226  167
227  192
228  179
229  200
230  205
231  227
232  212
233  229
234  246
235  262
236  256
237  257
238  349
239  310
240  356
241  357
242  369
243  420
244  423
245  541
246  520
247  526
248  576
249  584
250  631
251  692
252  704
253  707
254  786
255  780
256  873
257  839
258  881
259  848
260  836
261  869
262  892
263  823
264  817
265  790
266  748
267  754
268  700
269  711
270  662
271  608
272  564
273  554
274  490
275  460
276  401
277  345
278  318
279  297
280  264
281  257
282  214
283  196
284  202
285  164
286  154
287  124
288  124
289  103
290  88
291  70
292  75
293  62
294  81
295  58
296  75
297  56
298  64
299  57
300  57
301  54
302  57
303  58
304  53
305  43
306  59
307  46
308  54
309  48
310  55
311  48
312  59
313  43
314  47
315  35
316  39
317  48
318  46
319  39
320  46
321  60
322  53
323  43
324  50
325  59
326  45
327  66
328  54
329  43
330  39
331  41
332  49
333  45
334  52
335  39
336  41
337  33
338  57
339  44
340  53
341  44
342  45
343  47
344  54
345  37
346  51
347  37
348  40
349  45
350  37
351  38
352  55
353  46
354  34
355  39
356  58
357  43
358  54
359  36
360  54
361  42
362  63
363  46
364  43
365  42
366  43
367  42
368  42
369  36
370  42
371  52
372  39
373  48
374  46
375  34
376  40
377  50
378  56
379  44
380  47
381  52
382  37
383  45
384  47
385  48
386  45
387  35
388  37
389  57
390  49
391  47
392  37
393  39
394  42
395  51
396  33
397  50
398  39
399  36
400  45
401  43
402  50
403  52
404  39
405  51
406  53
407  49
408  49
409  49
410  49
411  42
412  48
413  39
414  48
415  35
416  40
417  52
418  46
419  47
420  49
421  47
422  51
423  39
424  38
425  39
426  51
427  58
428  29
429  32
430  34
431  43
432  45
433  55
434  52
435  49
436  52
437  41
438  55
439  43
440  60
441  38
442  44
443  43
444  47
445  47
446  50
447  49
448  50
449  43
450  48
451  47
452  50
453  39
454  44
455  44
456  51
457  50
458  53
459  39
460  48
461  45
462  43
463  44
464  45
465  62
466  53
467  58
468  62
469  58
470  57
471  42
472  51
473  46
474  44
475  52
476  38
477  55
478  51
479  55
480  45
481  54
482  50
483  46
484  39
485  34
486  43
487  38
488  44
489  59
490  50
491  55
492  39
493  53
494  56
495  55
496  51
497  45
498  42
499  53
500  38
501  45
502  45
503  43
504  34
505  46
506  46
507  37
508  40
509  49
510  43
511  29
512  39
513  36
514  35
515  44
516  35
517  33
518  31
519  42
520  24
521  36
522  33
523  34
524  24
525  32
526  30
527  27
528  27
529  35
530  20
531  20
532  26
533  24
534  21
535  16
536  21
537  14
538  17
539  15
540  17
541  27
542  14
543  29
544  19
545  22
546  18
547  21
548  17
549  17
550  17
551  20
552  17
553  20
554  13
555  20
556  24
557  16
558  14
559  17
560  20
561  25
562  15
563  19
564  20
565  27
566  20
567  17
568  26
569  17
570  22
571  22
572  25
573  21
574  33
575  29
576  37
577  33
578  27
579  32
580  34
581  33
582  40
583  35
584  47
585  31
586  53
587  37
588  48
589  38
590  60
591  52
592  52
593  53
594  42
595  72
596  58
597  65
598  65
599  49
600  55
601  59
602  54
603  70
604  80
605  63
606  62
607  69
608  76
609  67
610  58
611  80
612  83
613  61
614  83
615  80
616  75
617  84
618  77
619  81
620  80
621  63
622  69
623  76
624  78
625  68
626  46
627  58
628  72
629  52
630  48
631  59
632  51
633  55
634  66
635  45
636  52
637  44
638  50
639  30
640  54
641  29
642  34
643  41
644  27
645  23
646  25
647  23
648  16
649  20
650  22
651  16
652  12
653  19
654  21
655  10
656  9
657  10
658  12
659  11
660  7
661  8
662  9
663  6
664  7
665  7
666  5
667  8
668  9
669  6
670  5
671  5
672  7
673  5
674  3
675  4
676  2
677  5
678  4
679  1
680  2
681  4
682  5
683  6
684  3
685  3
686  1
687  0
688  3
689  3
690  1
691  2
692  3
693  4
694  1
695  2
696  3
697  0
698  3
699  4
700  3
701  4
702  1
703  2
704  1
705  1
706  4
707  1
708  3
709  3
710  2
711  4
712  2
713  2
714  2
715  0
716  0
717  6
718  3
719  2
720  1
721  4
722  4
723  0
724  2
725  2
726  4
727  0
728  0
729  1
730  2
731  0
732  2
733  0
734  2
735  0
736  1
737  0
738  1
739  2
740  1
741  3
742  4
743  2
744  1
745  1
746  0
747  2
748  2
749  1
750  2
751  1
752  0
753  1
754  1
755  0
756  1
757  1
758  3
759  1
760  0
761  0
762  2
763  2
764  3
765  1
766  1
767  1
768  1
769  0
770  0
771  1
772  1
773  1
774  1
775  0
776  2
777  0
778  0
779  0
780  1
781  2
782  2
783  2
784  1
785  1
786  1
787  2
788  1
789  0
790  1
791  1
792  1
793  1
794  0
795  2
796  3
797  2
798  0
799  1
800  2
801  0
802  1
803  1
804  4
805  1
806  3
807  7
808  4
809  11
810  7
811  15
812  16
813  17
814  88
815  62
816  41
817  0
818  0
819  0
820  0
821  0
822  0
823  0
824  0
825  0
826  0
827  0
828  0
829  0
830  0
831  0
832  0
833  0
834  0
835  0
836  0
837  0
838  0
839  0
840  0
841  0
842  0
843  0
844  0
845  0
846  0
847  0
848  0
849  0
850  0
851  0
852  0
853  0
854  0
855  0
856  0
857  0
858  0
859  0
860  0
861  0
862  0
863  0
864  0
865  0
866  0
867  0
868  0
869  0
870  0
871  0
872  0
873  0
874  0
875  0
876  0
877  0
878  0
879  0
880  0
881  0
882  0
883  0
884  0
885  0
886  0
887  0
888  0
889  0
890  0
891  0
892  0
893  0
894  0
895  0
896  0
897  0
898  0
899  0
900  0
901  0
902  0
903  0
904  0
905  0
906  0
907  0
908  0
909  0
910  0
911  0
912  0
913  0
914  0
915  0
916  0
917  0
918  0
919  0
920  0
921  0
922  0
923  0
924  0
925  0
926  0
927  0
928  0
929  0
930  0
931  0
932  0
933  0
934  0
935  0
936  0
937  0
938  0
939  0
940  0
941  1
942  0
943  0
944  0
945  1
946  1
947  1
948  2
949  1
950  0
951  2
952  2
953  1
954  0
955  0
956  0
957  0
958  1
959  1
960  0
961  1
962  1
963  0
964  0
965  0
966  2
967  0
968  0
969  0
970  0
971  0
972  0
973  1
974  0
975  2
976  1
977  0
978  0
979  1
980  3
981  0
982  0
983  2
984  3
985  0
986  2
987  4
988  0
989  2
990  2
991  0
992  2
993  2
994  5
995  6
996  11
997  9
998  9
999  11
1000  12
1001  8
1002  11
1003  10
1004  8
1005  13
1006  8
1007  13
1008  10
1009  10
1010  6
1011  9
1012  13
1013  15
1014  15
1015  12
1016  22
1017  23
1018  22
1019  36
1020  77
1021  157
1022  236
1023  1035
