0  1709
1  2268
2  5183
3  12297
4  25490
5  38054
6  41076
7  29285
8  17106
9  7177
10  3012
11  1591
12  1026
13  613
14  415
15  298
16  262
17  209
18  165
19  164
20  160
21  136
22  120
23  108
24  97
25  66
26  67
27  58
28  64
29  45
30  49
31  38
32  34
33  32
34  34
35  27
36  28
37  33
38  25
39  23
40  27
41  26
42  18
43  27
44  23
45  23
46  25
47  19
48  32
49  21
50  25
51  15
52  21
53  18
54  21
55  26
56  19
57  15
58  23
59  17
60  25
61  18
62  21
63  23
64  29
65  12
66  33
67  29
68  24
69  34
70  25
71  19
72  35
73  25
74  30
75  25
76  20
77  16
78  35
79  29
80  32
81  27
82  22
83  24
84  23
85  27
86  32
87  20
88  31
89  31
90  17
91  35
92  28
93  30
94  38
95  26
96  36
97  40
98  25
99  39
100  31
101  37
102  35
103  33
104  42
105  31
106  41
107  36
108  33
109  33
110  37
111  35
112  33
113  24
114  31
115  23
116  33
117  31
118  33
119  27
120  33
121  45
122  63
123  121
124  217
125  338
126  452
127  496
128  561
129  524
130  507
131  520
132  501
133  502
134  469
135  468
136  467
137  490
138  454
139  501
140  490
141  455
142  426
143  456
144  434
145  459
146  441
147  433
148  402
149  429
150  422
151  407
152  426
153  410
154  391
155  417
156  400
157  424
158  375
159  346
160  398
161  355
162  418
163  371
164  372
165  363
166  372
167  303
168  289
169  347
170  311
171  299
172  295
173  286
174  286
175  284
176  280
177  272
178  203
179  222
180  236
181  234
182  204
183  199
184  204
185  230
186  188
187  180
188  186
189  149
190  179
191  157
192  135
193  157
194  154
195  167
196  146
197  149
198  147
199  157
200  161
201  139
202  141
203  150
204  136
205  158
206  124
207  141
208  139
209  154
210  149
211  129
212  132
213  127
214  146
215  145
216  151
217  155
218  143
219  141
220  172
221  177
222  174
223  158
224  176
225  212
226  188
227  194
228  223
229  221
230  230
231  227
232  253
233  241
234  280
235  287
236  304
237  356
238  383
239  378
240  425
241  430
242  446
243  500
244  503
245  561
246  633
247  674
248  680
249  718
250  724
251  734
252  774
253  816
254  905
255  783
256  912
257  880
258  878
259  834
260  893
261  830
262  822
263  753
264  749
265  737
266  718
267  648
268  638
269  597
270  522
271  464
272  444
273  453
274  358
275  347
276  283
277  253
278  243
279  225
280  176
281  163
282  143
283  150
284  124
285  90
286  111
287  95
288  82
289  74
290  75
291  64
292  57
293  61
294  60
295  56
296  58
297  49
298  60
299  57
300  46
301  59
302  36
303  62
304  53
305  51
306  39
307  42
308  48
309  47
310  55
311  45
312  55
313  42
314  40
315  39
316  53
317  48
318  50
319  40
320  65
321  34
322  44
323  62
324  32
325  43
326  47
327  49
328  47
329  50
330  48
331  37
332  48
333  56
334  41
335  42
336  49
337  58
338  43
339  49
340  46
341  42
342  48
343  52
344  49
345  44
346  51
347  40
348  48
349  41
350  58
351  38
352  40
353  51
354  44
355  45
356  53
357  47
358  38
359  45
360  39
361  54
362  40
363  36
364  43
365  45
366  46
367  45
368  58
369  46
370  49
371  33
372  45
373  50
374  43
375  46
376  36
377  40
378  36
379  41
380  51
381  48
382  54
383  34
384  37
385  48
386  49
387  42
388  37
389  46
390  49
391  41
392  51
393  46
394  47
395  46
396  45
397  54
398  42
399  46
400  53
401  52
402  57
403  49
404  43
405  48
406  42
407  44
408  33
409  49
410  49
411  41
412  41
413  53
414  35
415  50
416  35
417  41
418  51
419  49
420  42
421  57
422  59
423  45
424  51
425  45
426  39
427  41
428  42
429  55
430  65
431  41
432  48
433  42
434  44
435  39
436  42
437  53
438  41
439  42
440  40
441  55
442  39
443  38
444  41
445  52
446  62
447  59
448  50
449  56
450  34
451  59
452  51
453  53
454  51
455  43
456  50
457  54
458  42
459  42
460  46
461  50
462  36
463  44
464  51
465  47
466  45
467  60
468  50
469  44
470  58
471  45
472  46
473  47
474  57
475  50
476  47
477  35
478  60
479  50
480  46
481  50
482  37
483  44
484  52
485  55
486  60
487  32
488  47
489  51
490  37
491  54
492  51
493  48
494  48
495  38
496  44
497  46
498  50
499  50
500  51
501  50
502  31
503  46
504  44
505  44
506  37
507  40
508  40
509  40
510  45
511  35
512  36
513  29
514  34
515  40
516  39
517  33
518  27
519  25
520  28
521  32
522  28
523  23
524  23
525  25
526  29
527  39
528  29
529  21
530  36
531  24
532  23
533  20
534  23
535  15
536  25
537  20
538  21
539  22
540  15
541  16
542  20
543  15
544  21
545  26
546  16
547  11
548  23
549  18
550  24
551  19
552  21
553  21
554  20
555  21
556  19
557  24
558  25
559  16
560  25
561  20
562  22
563  21
564  15
565  24
566  20
567  19
568  32
569  13
570  33
571  12
572  17
573  21
574  28
575  26
576  29
577  34
578  34
579  28
580  37
581  35
582  32
583  36
584  41
585  56
586  44
587  40
588  57
589  52
590  52
591  44
592  64
593  49
594  53
595  56
596  50
597  71
598  66
599  66
600  63
601  70
602  54
603  63
604  75
605  52
606  73
607  62
608  69
609  87
610  70
611  84
612  66
613  74
614  79
615  76
616  78
617  75
618  91
619  66
620  61
621  69
622  74
623  63
624  75
625  63
626  47
627  59
628  49
629  54
630  53
631  48
632  45
633  46
634  52
635  32
636  49
637  32
638  31
639  30
640  36
641  43
642  22
643  25
644  29
645  26
646  22
647  20
648  20
649  13
650  14
651  18
652  13
653  12
654  16
655  15
656  5
657  6
658  10
659  8
660  9
661  12
662  2
663  6
664  5
665  2
666  7
667  3
668  2
669  4
670  2
671  3
672  3
673  0
674  1
675  4
676  2
677  1
678  4
679  3
680  3
681  6
682  4
683  3
684  2
685  2
686  1
687  5
688  5
689  9
690  3
691  2
692  3
693  1
694  3
695  4
696  5
697  3
698  1
699  2
700  2
701  5
702  0
703  4
704  0
705  1
706  2
707  4
708  2
709  1
710  5
711  3
712  1
713  2
714  1
715  2
716  2
717  4
718  4
719  0
720  3
721  4
722  0
723  1
724  3
725  2
726  2
727  3
728  3
729  2
730  0
731  2
732  3
733  2
734  2
735  0
736  2
737  5
738  2
739  4
740  2
741  0
742  0
743  1
744  1
745  1
746  2
747  0
748  2
749  0
750  2
751  0
752  0
753  0
754  0
755  0
756  0
757  1
758  0
759  0
760  0
761  0
762  0
763  3
764  2
765  1
766  1
767  0
768  1
769  3
770  0
771  0
772  2
773  1
774  0
775  1
776  0
777  0
778  0
779  3
780  1
781  0
782  0
783  2
784  1
785  3
786  1
787  1
788  0
789  0
790  1
791  0
792  3
793  1
794  1
795  0
796  0
797  1
798  2
799  1
800  1
801  1
802  2
803  2
804  1
805  1
806  3
807  8
808  6
809  12
810  8
811  14
812  1
813  18
814  32
815  74
816  35
817  13
818  0
819  0
820  0
821  0
822  0
823  0
824  0
825  0
826  0
827  0
828  0
829  0
830  0
831  0
832  0
833  0
834  0
835  0
836  0
837  0
838  0
839  0
840  0
841  0
842  0
843  0
844  0
845  0
846  0
847  0
848  0
849  0
850  0
851  0
852  0
853  0
854  0
855  0
856  0
857  0
858  0
859  0
860  0
861  0
862  0
863  0
864  0
865  0
866  0
867  0
868  0
869  0
870  0
871  0
872  0
873  0
874  0
875  0
876  0
877  0
878  0
879  0
880  0
881  0
882  0
883  0
884  0
885  0
886  0
887  0
888  0
889  0
890  0
891  0
892  0
893  0
894  0
895  0
896  0
897  0
898  0
899  0
900  0
901  0
902  0
903  0
904  0
905  0
906  0
907  0
908  0
909  0
910  0
911  0
912  0
913  0
914  0
915  0
916  0
917  0
918  0
919  0
920  0
921  0
922  0
923  0
924  0
925  0
926  0
927  0
928  0
929  0
930  0
931  0
932  0
933  0
934  0
935  0
936  0
937  0
938  0
939  0
940  0
941  0
942  1
943  0
944  1
945  2
946  1
947  1
948  2
949  1
950  1
951  0
952  2
953  2
954  0
955  0
956  0
957  0
958  0
959  2
960  1
961  1
962  1
963  1
964  0
965  0
966  1
967  0
968  0
969  0
970  0
971  1
972  1
973  0
974  1
975  2
976  1
977  1
978  0
979  2
980  1
981  0
982  2
983  3
984  2
985  1
986  0
987  1
988  0
989  4
990  1
991  3
992  1
993  6
994  7
995  5
996  10
997  17
998  13
999  11
1000  21
1001  14
1002  11
1003  17
1004  4
1005  11
1006  12
1007  13
1008  9
1009  8
1010  15
1011  20
1012  17
1013  13
1014  14
1015  18
1016  19
1017  28
1018  40
1019  62
1020  86
1021  177
1022  333
1023  1223
