0  470
1  399
2  826
3  1670
4  3346
5  6269
6  10777
7  14043
8  15676
9  11726
10  7519
11  3817
12  1903
13  851
14  394
15  224
16  105
17  74
18  32
19  17
20  11
21  11
22  7
23  5
24  3
25  3
26  8
27  6
28  4
29  6
30  7
31  7
32  5
33  8
34  3
35  4
36  3
37  7
38  6
39  3
40  4
41  3
42  5
43  7
44  4
45  6
46  2
47  3
48  4
49  4
50  4
51  3
52  5
53  8
54  8
55  3
56  4
57  4
58  3
59  3
60  6
61  10
62  1
63  7
64  4
65  4
66  10
67  8
68  9
69  12
70  9
71  4
72  7
73  2
74  9
75  5
76  4
77  5
78  6
79  3
80  8
81  9
82  5
83  5
84  9
85  5
86  5
87  8
88  7
89  7
90  9
91  4
92  9
93  7
94  8
95  11
96  7
97  2
98  1
99  4
100  4
101  1
102  8
103  5
104  13
105  28
106  44
107  102
108  180
109  356
110  602
111  878
112  1113
113  1205
114  1333
115  1299
116  1216
117  1331
118  1326
119  1262
120  1339
121  1295
122  1210
123  1220
124  1217
125  1247
126  1195
127  1122
128  1235
129  1134
130  1184
131  1135
132  1134
133  1103
134  1055
135  1028
136  1095
137  1049
138  1048
139  995
140  968
141  1010
142  965
143  903
144  945
145  937
146  905
147  900
148  915
149  933
150  861
151  836
152  827
153  841
154  839
155  772
156  734
157  826
158  771
159  750
160  713
161  747
162  727
163  740
164  743
165  764
166  663
167  658
168  721
169  674
170  679
171  676
172  650
173  618
174  642
175  598
176  634
177  621
178  616
179  558
180  632
181  572
182  581
183  550
184  577
185  579
186  514
187  514
188  508
189  497
190  512
191  481
192  510
193  515
194  489
195  459
196  438
197  464
198  424
199  446
200  459
201  466
202  404
203  397
204  403
205  373
206  368
207  368
208  390
209  346
210  340
211  322
212  329
213  314
214  297
215  316
216  337
217  308
218  310
219  317
220  297
221  258
222  278
223  279
224  266
225  247
226  237
227  261
228  248
229  247
230  261
231  236
232  246
233  258
234  236
235  221
236  264
237  252
238  278
239  284
240  291
241  299
242  268
243  286
244  287
245  311
246  329
247  355
248  359
249  357
250  396
251  427
252  459
253  460
254  473
255  497
256  619
257  635
258  647
259  678
260  695
261  788
262  817
263  792
264  863
265  896
266  906
267  953
268  1057
269  980
270  1048
271  1048
272  1150
273  1122
274  1216
275  1215
276  1263
277  1258
278  1243
279  1307
280  1303
281  1377
282  1280
283  1265
284  1333
285  1287
286  1327
287  1257
288  1238
289  1227
290  1200
291  1124
292  1181
293  1127
294  1137
295  1130
296  1073
297  1087
298  1034
299  945
300  926
301  862
302  822
303  766
304  779
305  746
306  683
307  676
308  666
309  616
310  623
311  565
312  535
313  529
314  487
315  500
316  440
317  456
318  386
319  346
320  383
321  351
322  295
323  315
324  271
325  273
326  278
327  295
328  248
329  230
330  213
331  228
332  219
333  201
334  192
335  168
336  197
337  186
338  132
339  166
340  137
341  157
342  157
343  124
344  147
345  121
346  146
347  136
348  138
349  122
350  98
351  114
352  110
353  95
354  114
355  109
356  104
357  92
358  88
359  113
360  92
361  91
362  102
363  84
364  77
365  88
366  89
367  89
368  106
369  81
370  80
371  95
372  91
373  81
374  87
375  91
376  82
377  92
378  70
379  84
380  90
381  90
382  83
383  60
384  74
385  108
386  72
387  78
388  95
389  89
390  92
391  77
392  89
393  99
394  76
395  79
396  97
397  88
398  94
399  78
400  87
401  91
402  85
403  89
404  82
405  87
406  77
407  81
408  91
409  96
410  100
411  92
412  84
413  70
414  106
415  86
416  83
417  88
418  92
419  79
420  73
421  95
422  90
423  86
424  86
425  104
426  79
427  70
428  98
429  79
430  97
431  80
432  97
433  78
434  87
435  92
436  87
437  105
438  75
439  82
440  96
441  81
442  103
443  88
444  82
445  88
446  81
447  64
448  88
449  73
450  108
451  115
452  87
453  84
454  89
455  84
456  102
457  93
458  87
459  75
460  99
461  88
462  98
463  109
464  97
465  107
466  91
467  112
468  93
469  77
470  90
471  93
472  97
473  108
474  79
475  87
476  93
477  81
478  99
479  84
480  104
481  93
482  112
483  96
484  82
485  91
486  103
487  89
488  106
489  109
490  99
491  101
492  82
493  100
494  89
495  92
496  113
497  85
498  95
499  95
500  105
501  92
502  77
503  89
504  82
505  81
506  66
507  81
508  97
509  79
510  91
511  54
512  77
513  98
514  97
515  86
516  90
517  79
518  89
519  111
520  77
521  76
522  67
523  86
524  76
525  94
526  71
527  85
528  83
529  89
530  71
531  69
532  91
533  77
534  71
535  89
536  74
537  71
538  79
539  83
540  85
541  64
542  85
543  66
544  73
545  68
546  98
547  70
548  87
549  66
550  80
551  66
552  77
553  75
554  72
555  74
556  78
557  69
558  52
559  65
560  60
561  70
562  70
563  76
564  68
565  68
566  74
567  55
568  77
569  67
570  45
571  49
572  61
573  66
574  66
575  56
576  55
577  60
578  53
579  66
580  48
581  50
582  55
583  66
584  60
585  56
586  61
587  54
588  55
589  47
590  53
591  61
592  63
593  35
594  52
595  61
596  53
597  44
598  46
599  54
600  52
601  41
602  55
603  54
604  50
605  58
606  51
607  53
608  64
609  59
610  53
611  39
612  66
613  63
614  76
615  68
616  60
617  66
618  68
619  70
620  70
621  64
622  75
623  76
624  65
625  88
626  74
627  89
628  96
629  73
630  94
631  98
632  98
633  107
634  103
635  108
636  105
637  123
638  122
639  105
640  121
641  126
642  118
643  121
644  130
645  126
646  128
647  130
648  121
649  137
650  133
651  173
652  152
653  142
654  152
655  136
656  120
657  151
658  150
659  164
660  155
661  133
662  135
663  147
664  131
665  133
666  152
667  131
668  146
669  129
670  161
671  143
672  138
673  141
674  128
675  134
676  142
677  124
678  147
679  126
680  115
681  116
682  127
683  95
684  133
685  130
686  122
687  98
688  109
689  114
690  109
691  93
692  90
693  91
694  97
695  93
696  83
697  99
698  78
699  89
700  91
701  83
702  97
703  73
704  81
705  84
706  61
707  66
708  75
709  63
710  54
711  52
712  77
713  50
714  58
715  55
716  69
717  66
718  43
719  41
720  56
721  45
722  52
723  40
724  52
725  47
726  42
727  56
728  37
729  38
730  35
731  51
732  44
733  27
734  36
735  36
736  31
737  35
738  31
739  27
740  33
741  17
742  33
743  24
744  24
745  21
746  25
747  17
748  29
749  28
750  28
751  24
752  18
753  24
754  20
755  16
756  23
757  18
758  16
759  15
760  21
761  25
762  20
763  18
764  14
765  15
766  19
767  11
768  16
769  21
770  15
771  10
772  12
773  17
774  16
775  13
776  9
777  9
778  12
779  8
780  19
781  16
782  14
783  12
784  14
785  15
786  12
787  9
788  7
789  8
790  11
791  8
792  9
793  11
794  6
795  5
796  10
797  4
798  6
799  8
800  4
801  3
802  7
803  7
804  11
805  8
806  5
807  5
808  10
809  9
810  4
811  5
812  5
813  7
814  42
815  26
816  6
817  3
818  5
819  3
820  3
821  7
822  6
823  3
824  2
825  7
826  9
827  8
828  10
829  6
830  13
831  16
832  15
833  18
834  33
835  27
836  48
837  45
838  50
839  52
840  62
841  57
842  64
843  97
844  187
845  116
846  147
847  0
848  0
849  0
850  0
851  0
852  0
853  0
854  0
855  0
856  0
857  0
858  0
859  0
860  0
861  0
862  0
863  0
864  0
865  0
866  0
867  0
868  0
869  0
870  0
871  0
872  0
873  0
874  0
875  0
876  0
877  0
878  0
879  0
880  0
881  0
882  0
883  0
884  0
885  0
886  0
887  0
888  0
889  0
890  0
891  0
892  0
893  0
894  0
895  0
896  0
897  0
898  0
899  0
900  0
901  0
902  0
903  0
904  0
905  0
906  0
907  0
908  0
909  0
910  0
911  0
912  0
913  0
914  0
915  0
916  0
917  0
918  0
919  0
920  0
921  0
922  0
923  0
924  0
925  0
926  0
927  0
928  0
929  0
930  0
931  0
932  0
933  0
934  0
935  0
936  0
937  0
938  0
939  0
940  0
941  0
942  0
943  0
944  1
945  0
946  0
947  0
948  0
949  0
950  0
951  0
952  0
953  0
954  0
955  0
956  0
957  0
958  0
959  0
960  0
961  1
962  0
963  0
964  0
965  0
966  0
967  0
968  0
969  0
970  1
971  0
972  0
973  0
974  0
975  0
976  1
977  0
978  1
979  0
980  0
981  0
982  0
983  0
984  1
985  1
986  0
987  0
988  0
989  0
990  0
991  0
992  2
993  0
994  2
995  1
996  0
997  0
998  0
999  0
1000  0
1001  0
1002  1
1003  0
1004  0
1005  1
1006  2
1007  0
1008  3
1009  5
1010  1
1011  2
1012  2
1013  3
1014  1
1015  5
1016  5
1017  4
1018  2
1019  2
1020  3
1021  2
1022  2
1023  12
