0  381
1  378
2  782
3  1480
4  3158
5  5865
6  10144
7  13746
8  15346
9  11239
10  6606
11  3274
12  1541
13  691
14  312
15  155
16  104
17  57
18  41
19  18
20  20
21  5
22  7
23  4
24  5
25  7
26  5
27  2
28  7
29  4
30  5
31  5
32  7
33  4
34  7
35  6
36  3
37  4
38  3
39  2
40  1
41  4
42  6
43  2
44  4
45  3
46  7
47  8
48  3
49  3
50  3
51  7
52  7
53  6
54  8
55  6
56  3
57  7
58  6
59  3
60  6
61  4
62  8
63  2
64  7
65  5
66  6
67  7
68  4
69  4
70  3
71  3
72  5
73  6
74  5
75  4
76  4
77  5
78  6
79  3
80  7
81  7
82  6
83  11
84  6
85  6
86  7
87  3
88  6
89  3
90  6
91  7
92  6
93  9
94  8
95  7
96  3
97  4
98  1
99  3
100  3
101  3
102  3
103  3
104  7
105  24
106  46
107  81
108  193
109  378
110  601
111  885
112  1143
113  1264
114  1301
115  1305
116  1343
117  1333
118  1343
119  1258
120  1252
121  1199
122  1298
123  1254
124  1226
125  1217
126  1171
127  1083
128  1254
129  1180
130  1174
131  1088
132  1104
133  1136
134  1096
135  1055
136  1059
137  1020
138  1047
139  1020
140  997
141  930
142  999
143  952
144  919
145  960
146  877
147  820
148  925
149  928
150  793
151  804
152  832
153  764
154  828
155  765
156  761
157  729
158  781
159  717
160  753
161  761
162  703
163  692
164  689
165  750
166  734
167  669
168  776
169  683
170  660
171  639
172  657
173  629
174  617
175  627
176  572
177  624
178  598
179  613
180  586
181  630
182  516
183  535
184  548
185  556
186  555
187  534
188  505
189  511
190  525
191  489
192  501
193  452
194  499
195  424
196  458
197  453
198  473
199  441
200  418
201  387
202  419
203  420
204  399
205  370
206  366
207  350
208  337
209  361
210  325
211  328
212  328
213  306
214  325
215  285
216  347
217  343
218  327
219  256
220  301
221  308
222  292
223  263
224  273
225  258
226  261
227  252
228  258
229  279
230  242
231  248
232  282
233  248
234  263
235  219
236  235
237  275
238  244
239  252
240  280
241  279
242  302
243  284
244  291
245  318
246  352
247  354
248  382
249  397
250  401
251  405
252  492
253  478
254  477
255  490
256  598
257  564
258  638
259  660
260  725
261  736
262  778
263  813
264  851
265  885
266  922
267  939
268  1044
269  1052
270  1100
271  1054
272  1210
273  1150
274  1205
275  1210
276  1307
277  1269
278  1306
279  1280
280  1380
281  1306
282  1296
283  1262
284  1324
285  1271
286  1246
287  1212
288  1286
289  1252
290  1258
291  1163
292  1131
293  1143
294  1051
295  1078
296  1021
297  956
298  961
299  913
300  844
301  823
302  824
303  771
304  790
305  689
306  675
307  640
308  660
309  574
310  535
311  547
312  569
313  513
314  463
315  467
316  449
317  407
318  401
319  360
320  361
321  313
322  317
323  284
324  312
325  282
326  264
327  260
328  259
329  254
330  232
331  241
332  194
333  196
334  191
335  187
336  169
337  168
338  167
339  142
340  154
341  129
342  154
343  130
344  150
345  133
346  128
347  131
348  107
349  92
350  95
351  106
352  106
353  102
354  111
355  102
356  91
357  107
358  94
359  104
360  76
361  116
362  96
363  94
364  96
365  90
366  81
367  86
368  90
369  76
370  93
371  111
372  112
373  84
374  79
375  109
376  96
377  98
378  86
379  96
380  91
381  89
382  85
383  75
384  92
385  91
386  72
387  98
388  90
389  64
390  98
391  67
392  78
393  82
394  82
395  83
396  72
397  91
398  83
399  89
400  97
401  87
402  78
403  77
404  79
405  78
406  97
407  79
408  95
409  95
410  81
411  93
412  73
413  88
414  85
415  96
416  85
417  98
418  90
419  75
420  68
421  92
422  86
423  82
424  87
425  64
426  95
427  95
428  115
429  89
430  82
431  84
432  80
433  89
434  100
435  96
436  94
437  100
438  86
439  101
440  83
441  83
442  80
443  89
444  92
445  69
446  103
447  91
448  113
449  81
450  95
451  87
452  76
453  90
454  77
455  107
456  85
457  90
458  84
459  92
460  95
461  68
462  89
463  86
464  106
465  78
466  86
467  89
468  76
469  98
470  88
471  100
472  84
473  107
474  76
475  97
476  93
477  106
478  92
479  69
480  105
481  80
482  100
483  88
484  90
485  101
486  89
487  119
488  98
489  101
490  84
491  88
492  107
493  106
494  78
495  85
496  81
497  92
498  100
499  92
500  89
501  77
502  77
503  80
504  81
505  97
506  77
507  74
508  74
509  64
510  79
511  67
512  113
513  78
514  88
515  94
516  83
517  104
518  74
519  84
520  108
521  89
522  84
523  100
524  63
525  117
526  65
527  99
528  70
529  90
530  67
531  97
532  86
533  75
534  78
535  81
536  71
537  91
538  63
539  91
540  90
541  71
542  96
543  77
544  81
545  62
546  74
547  78
548  57
549  79
550  75
551  61
552  60
553  62
554  68
555  64
556  69
557  51
558  69
559  72
560  73
561  66
562  62
563  62
564  60
565  54
566  72
567  55
568  64
569  77
570  59
571  69
572  63
573  50
574  38
575  59
576  51
577  51
578  68
579  52
580  45
581  56
582  49
583  52
584  65
585  60
586  62
587  50
588  48
589  53
590  64
591  54
592  50
593  66
594  54
595  50
596  52
597  54
598  48
599  59
600  52
601  59
602  56
603  49
604  48
605  64
606  60
607  48
608  63
609  50
610  63
611  68
612  67
613  74
614  62
615  66
616  66
617  77
618  82
619  72
620  71
621  74
622  67
623  85
624  88
625  63
626  79
627  77
628  82
629  91
630  96
631  97
632  77
633  117
634  126
635  106
636  87
637  124
638  130
639  108
640  107
641  121
642  121
643  121
644  103
645  107
646  132
647  116
648  138
649  132
650  122
651  135
652  144
653  140
654  146
655  140
656  162
657  151
658  154
659  138
660  141
661  149
662  147
663  136
664  140
665  136
666  126
667  165
668  133
669  149
670  126
671  139
672  133
673  149
674  134
675  120
676  141
677  155
678  133
679  133
680  126
681  139
682  134
683  125
684  121
685  126
686  119
687  92
688  102
689  102
690  106
691  91
692  79
693  94
694  98
695  81
696  101
697  94
698  93
699  87
700  92
701  96
702  77
703  76
704  88
705  67
706  68
707  69
708  69
709  61
710  80
711  59
712  68
713  55
714  55
715  58
716  69
717  66
718  59
719  45
720  57
721  53
722  43
723  47
724  52
725  43
726  38
727  41
728  42
729  45
730  33
731  43
732  39
733  36
734  34
735  23
736  36
737  35
738  34
739  30
740  34
741  27
742  21
743  22
744  34
745  22
746  15
747  29
748  19
749  28
750  13
751  19
752  21
753  24
754  26
755  19
756  17
757  21
758  18
759  15
760  22
761  19
762  16
763  21
764  12
765  16
766  18
767  9
768  21
769  23
770  22
771  11
772  14
773  17
774  13
775  8
776  13
777  13
778  18
779  9
780  10
781  10
782  11
783  13
784  12
785  10
786  4
787  7
788  10
789  10
790  5
791  6
792  4
793  11
794  10
795  8
796  6
797  6
798  9
799  4
800  10
801  7
802  8
803  7
804  7
805  8
806  3
807  6
808  5
809  1
810  5
811  5
812  5
813  11
814  59
815  28
816  5
817  8
818  3
819  5
820  6
821  7
822  5
823  5
824  3
825  6
826  3
827  5
828  7
829  9
830  5
831  13
832  13
833  22
834  23
835  26
836  32
837  46
838  51
839  63
840  49
841  50
842  63
843  218
844  137
845  139
846  81
847  0
848  0
849  0
850  0
851  0
852  0
853  0
854  0
855  0
856  0
857  0
858  0
859  0
860  0
861  0
862  0
863  0
864  0
865  0
866  0
867  0
868  0
869  0
870  0
871  0
872  0
873  0
874  0
875  0
876  0
877  0
878  0
879  0
880  0
881  0
882  0
883  0
884  0
885  0
886  0
887  0
888  0
889  0
890  0
891  0
892  0
893  0
894  0
895  0
896  0
897  0
898  0
899  0
900  0
901  0
902  0
903  0
904  0
905  0
906  0
907  0
908  0
909  0
910  0
911  0
912  0
913  0
914  0
915  0
916  0
917  0
918  0
919  0
920  0
921  0
922  0
923  0
924  0
925  0
926  0
927  0
928  0
929  0
930  0
931  0
932  0
933  0
934  0
935  0
936  0
937  0
938  0
939  0
940  0
941  1
942  0
943  0
944  0
945  1
946  0
947  0
948  0
949  0
950  0
951  0
952  0
953  0
954  1
955  0
956  1
957  0
958  0
959  0
960  0
961  0
962  0
963  0
964  0
965  0
966  0
967  0
968  0
969  0
970  0
971  0
972  1
973  1
974  0
975  0
976  0
977  0
978  0
979  0
980  0
981  1
982  0
983  0
984  0
985  0
986  0
987  0
988  1
989  0
990  0
991  0
992  0
993  0
994  0
995  0
996  0
997  0
998  0
999  0
1000  0
1001  0
1002  0
1003  1
1004  0
1005  1
1006  0
1007  2
1008  2
1009  0
1010  3
1011  2
1012  1
1013  2
1014  4
1015  1
1016  4
1017  3
1018  4
1019  4
1020  3
1021  2
1022  5
1023  16
