0  1462
1  2089
2  4656
3  10860
4  22782
5  33292
6  36150
7  25966
8  15505
9  6429
10  2777
11  1484
12  915
13  595
14  464
15  325
16  299
17  270
18  226
19  186
20  189
21  163
22  196
23  161
24  148
25  131
26  132
27  116
28  132
29  133
30  134
31  115
32  87
33  92
34  102
35  81
36  82
37  103
38  104
39  93
40  85
41  91
42  100
43  95
44  80
45  101
46  110
47  89
48  101
49  101
50  83
51  99
52  95
53  82
54  74
55  77
56  77
57  90
58  68
59  93
60  94
61  81
62  66
63  71
64  84
65  77
66  84
67  73
68  90
69  83
70  71
71  81
72  78
73  78
74  109
75  63
76  82
77  63
78  87
79  83
80  95
81  96
82  116
83  81
84  83
85  101
86  94
87  100
88  97
89  117
90  125
91  100
92  91
93  99
94  103
95  84
96  103
97  109
98  107
99  104
100  92
101  108
102  87
103  100
104  101
105  99
106  78
107  90
108  101
109  111
110  99
111  82
112  102
113  93
114  109
115  95
116  97
117  90
118  91
119  84
120  82
121  111
122  135
123  162
124  261
125  394
126  458
127  486
128  525
129  528
130  518
131  543
132  538
133  546
134  532
135  480
136  469
137  490
138  471
139  452
140  487
141  426
142  478
143  416
144  460
145  378
146  398
147  398
148  407
149  411
150  406
151  419
152  460
153  423
154  368
155  374
156  387
157  373
158  405
159  415
160  377
161  385
162  419
163  341
164  350
165  380
166  355
167  367
168  347
169  299
170  297
171  336
172  299
173  305
174  295
175  286
176  279
177  270
178  270
179  235
180  242
181  216
182  233
183  211
184  201
185  211
186  181
187  189
188  180
189  182
190  167
191  175
192  148
193  169
194  141
195  155
196  138
197  143
198  149
199  127
200  130
201  127
202  145
203  117
204  127
205  142
206  142
207  149
208  132
209  131
210  142
211  142
212  158
213  132
214  133
215  159
216  152
217  153
218  152
219  154
220  151
221  158
222  179
223  179
224  182
225  177
226  177
227  212
228  203
229  196
230  223
231  229
232  193
233  231
234  228
235  265
236  271
237  308
238  307
239  314
240  389
241  372
242  373
243  441
244  488
245  506
246  543
247  545
248  658
249  630
250  695
251  694
252  701
253  806
254  841
255  804
256  903
257  845
258  839
259  858
260  875
261  888
262  843
263  841
264  812
265  785
266  739
267  703
268  698
269  669
270  621
271  553
272  549
273  469
274  398
275  419
276  361
277  349
278  318
279  294
280  225
281  213
282  215
283  195
284  149
285  144
286  118
287  111
288  105
289  101
290  96
291  76
292  58
293  80
294  62
295  55
296  64
297  57
298  32
299  49
300  46
301  55
302  49
303  50
304  50
305  57
306  47
307  41
308  54
309  53
310  49
311  51
312  56
313  36
314  39
315  46
316  48
317  46
318  44
319  40
320  37
321  36
322  45
323  61
324  41
325  34
326  51
327  46
328  54
329  63
330  49
331  49
332  43
333  44
334  49
335  48
336  48
337  51
338  51
339  39
340  47
341  44
342  38
343  49
344  43
345  35
346  49
347  36
348  53
349  52
350  48
351  40
352  46
353  44
354  42
355  35
356  43
357  45
358  39
359  50
360  48
361  42
362  57
363  36
364  60
365  39
366  45
367  52
368  48
369  44
370  43
371  40
372  45
373  40
374  49
375  37
376  39
377  42
378  43
379  46
380  41
381  47
382  35
383  54
384  51
385  50
386  61
387  31
388  35
389  58
390  54
391  38
392  55
393  54
394  48
395  48
396  32
397  48
398  49
399  55
400  58
401  48
402  58
403  51
404  49
405  53
406  48
407  40
408  48
409  48
410  44
411  58
412  44
413  43
414  37
415  38
416  41
417  57
418  43
419  47
420  41
421  50
422  51
423  35
424  34
425  49
426  50
427  35
428  41
429  37
430  50
431  41
432  42
433  54
434  49
435  34
436  41
437  43
438  45
439  45
440  46
441  41
442  49
443  50
444  56
445  42
446  55
447  43
448  49
449  38
450  47
451  42
452  48
453  40
454  53
455  46
456  54
457  34
458  47
459  37
460  43
461  48
462  48
463  45
464  51
465  50
466  44
467  40
468  40
469  52
470  44
471  48
472  48
473  51
474  50
475  45
476  67
477  45
478  57
479  64
480  34
481  69
482  51
483  61
484  56
485  51
486  56
487  51
488  60
489  54
490  54
491  40
492  37
493  45
494  43
495  46
496  49
497  61
498  49
499  53
500  53
501  58
502  36
503  53
504  49
505  31
506  41
507  45
508  38
509  41
510  43
511  42
512  41
513  34
514  34
515  41
516  37
517  28
518  36
519  27
520  34
521  33
522  42
523  27
524  28
525  29
526  42
527  15
528  43
529  28
530  21
531  30
532  24
533  26
534  16
535  16
536  15
537  27
538  17
539  17
540  29
541  17
542  22
543  14
544  18
545  13
546  16
547  19
548  22
549  19
550  13
551  16
552  22
553  15
554  17
555  14
556  19
557  11
558  27
559  18
560  20
561  23
562  18
563  17
564  23
565  26
566  21
567  21
568  16
569  20
570  25
571  24
572  28
573  35
574  31
575  27
576  25
577  29
578  27
579  29
580  27
581  37
582  39
583  39
584  36
585  40
586  35
587  38
588  47
589  46
590  46
591  45
592  47
593  57
594  56
595  41
596  61
597  58
598  55
599  54
600  64
601  71
602  71
603  64
604  78
605  60
606  82
607  68
608  68
609  70
610  71
611  66
612  75
613  76
614  80
615  58
616  71
617  73
618  83
619  86
620  63
621  71
622  80
623  66
624  75
625  56
626  69
627  61
628  58
629  54
630  67
631  47
632  57
633  50
634  43
635  36
636  47
637  36
638  48
639  44
640  38
641  30
642  40
643  27
644  30
645  22
646  25
647  23
648  11
649  23
650  11
651  15
652  24
653  19
654  16
655  8
656  9
657  11
658  11
659  6
660  9
661  7
662  3
663  5
664  8
665  5
666  7
667  6
668  7
669  1
670  5
671  4
672  4
673  2
674  5
675  4
676  0
677  5
678  1
679  3
680  1
681  2
682  2
683  4
684  2
685  1
686  3
687  0
688  2
689  3
690  3
691  1
692  3
693  6
694  0
695  1
696  6
697  3
698  1
699  1
700  2
701  1
702  0
703  5
704  3
705  5
706  4
707  0
708  2
709  6
710  4
711  1
712  6
713  4
714  3
715  2
716  3
717  2
718  0
719  0
720  2
721  1
722  4
723  2
724  1
725  1
726  3
727  1
728  2
729  3
730  2
731  3
732  1
733  1
734  4
735  1
736  0
737  3
738  0
739  0
740  3
741  0
742  1
743  3
744  0
745  2
746  0
747  1
748  0
749  1
750  2
751  1
752  1
753  0
754  5
755  1
756  0
757  0
758  1
759  0
760  1
761  0
762  0
763  2
764  0
765  0
766  2
767  3
768  1
769  2
770  0
771  1
772  1
773  2
774  1
775  0
776  1
777  1
778  1
779  0
780  2
781  0
782  0
783  1
784  0
785  0
786  0
787  0
788  1
789  1
790  1
791  2
792  1
793  2
794  1
795  1
796  0
797  1
798  0
799  3
800  1
801  0
802  2
803  4
804  0
805  0
806  2
807  13
808  10
809  7
810  6
811  8
812  12
813  7
814  34
815  97
816  38
817  12
818  0
819  0
820  0
821  0
822  0
823  0
824  0
825  0
826  0
827  0
828  0
829  0
830  0
831  0
832  0
833  0
834  0
835  0
836  0
837  0
838  0
839  0
840  0
841  0
842  0
843  0
844  0
845  0
846  0
847  0
848  0
849  0
850  0
851  0
852  0
853  0
854  0
855  0
856  0
857  0
858  0
859  0
860  0
861  0
862  0
863  0
864  0
865  0
866  0
867  0
868  0
869  0
870  0
871  0
872  0
873  0
874  0
875  0
876  0
877  0
878  0
879  0
880  0
881  0
882  0
883  0
884  0
885  0
886  0
887  0
888  0
889  0
890  0
891  0
892  0
893  0
894  0
895  0
896  0
897  0
898  0
899  0
900  0
901  0
902  0
903  0
904  0
905  0
906  0
907  0
908  0
909  0
910  0
911  0
912  0
913  0
914  0
915  0
916  0
917  0
918  0
919  0
920  0
921  0
922  0
923  0
924  0
925  0
926  0
927  0
928  0
929  0
930  0
931  0
932  0
933  0
934  0
935  0
936  0
937  0
938  0
939  0
940  0
941  0
942  0
943  0
944  0
945  1
946  3
947  3
948  1
949  2
950  2
951  1
952  0
953  0
954  2
955  0
956  0
957  1
958  0
959  1
960  0
961  1
962  0
963  0
964  0
965  3
966  0
967  0
968  0
969  0
970  1
971  1
972  1
973  0
974  1
975  1
976  0
977  2
978  2
979  0
980  2
981  1
982  0
983  1
984  1
985  2
986  1
987  1
988  2
989  0
990  0
991  5
992  4
993  3
994  2
995  5
996  10
997  13
998  15
999  20
1000  16
1001  18
1002  19
1003  16
1004  14
1005  7
1006  8
1007  6
1008  13
1009  15
1010  8
1011  14
1012  11
1013  12
1014  9
1015  17
1016  15
1017  18
1018  33
1019  34
1020  80
1021  148
1022  294
1023  1087
