0  307
1  230
2  489
3  975
4  2007
5  3800
6  6597
7  9137
8  10050
9  7333
10  4357
11  2180
12  1025
13  482
14  256
15  162
16  108
17  78
18  84
19  88
20  66
21  62
22  66
23  59
24  72
25  71
26  75
27  46
28  58
29  61
30  74
31  72
32  70
33  76
34  68
35  64
36  71
37  72
38  63
39  64
40  86
41  68
42  78
43  79
44  80
45  74
46  77
47  69
48  75
49  82
50  67
51  84
52  79
53  92
54  88
55  82
56  67
57  92
58  73
59  94
60  70
61  59
62  80
63  63
64  84
65  72
66  64
67  63
68  76
69  100
70  73
71  67
72  67
73  68
74  81
75  78
76  91
77  72
78  80
79  103
80  80
81  100
82  81
83  84
84  82
85  87
86  63
87  56
88  77
89  78
90  69
91  83
92  67
93  80
94  73
95  56
96  43
97  31
98  22
99  14
100  5
101  5
102  3
103  9
104  8
105  23
106  56
107  99
108  197
109  381
110  671
111  909
112  1141
113  1245
114  1283
115  1293
116  1290
117  1318
118  1307
119  1216
120  1312
121  1317
122  1205
123  1098
124  1198
125  1238
126  1200
127  1101
128  1208
129  1189
130  1216
131  1092
132  1101
133  1098
134  1092
135  999
136  1028
137  1073
138  974
139  967
140  1001
141  1041
142  945
143  935
144  916
145  915
146  918
147  930
148  902
149  875
150  803
151  845
152  844
153  823
154  827
155  746
156  860
157  777
158  729
159  686
160  755
161  738
162  667
163  700
164  699
165  693
166  653
167  661
168  714
169  691
170  654
171  644
172  673
173  605
174  616
175  573
176  623
177  594
178  622
179  613
180  595
181  590
182  555
183  548
184  573
185  571
186  514
187  524
188  578
189  534
190  521
191  456
192  519
193  547
194  452
195  458
196  481
197  467
198  482
199  411
200  425
201  406
202  403
203  389
204  397
205  401
206  403
207  368
208  397
209  342
210  330
211  305
212  333
213  314
214  310
215  301
216  328
217  317
218  300
219  297
220  288
221  321
222  279
223  298
224  246
225  282
226  257
227  279
228  267
229  263
230  241
231  256
232  272
233  265
234  262
235  243
236  255
237  268
238  270
239  293
240  298
241  286
242  286
243  297
244  304
245  377
246  345
247  374
248  380
249  398
250  386
251  431
252  463
253  493
254  488
255  527
256  567
257  638
258  643
259  676
260  745
261  761
262  776
263  817
264  942
265  884
266  928
267  1010
268  1115
269  1034
270  1130
271  1046
272  1143
273  1168
274  1230
275  1253
276  1251
277  1345
278  1306
279  1270
280  1354
281  1317
282  1291
283  1313
284  1320
285  1295
286  1275
287  1233
288  1265
289  1213
290  1173
291  1125
292  1128
293  1089
294  1036
295  1006
296  1022
297  1008
298  899
299  916
300  910
301  846
302  821
303  749
304  732
305  701
306  682
307  696
308  662
309  597
310  576
311  557
312  516
313  481
314  477
315  446
316  430
317  435
318  375
319  342
320  393
321  377
322  318
323  303
324  298
325  271
326  237
327  265
328  265
329  230
330  237
331  221
332  220
333  204
334  162
335  159
336  177
337  170
338  156
339  168
340  151
341  134
342  132
343  143
344  137
345  142
346  119
347  138
348  128
349  111
350  124
351  120
352  121
353  106
354  103
355  101
356  109
357  106
358  100
359  93
360  97
361  104
362  108
363  118
364  96
365  84
366  84
367  101
368  91
369  80
370  96
371  76
372  109
373  79
374  77
375  81
376  94
377  96
378  86
379  96
380  89
381  86
382  84
383  101
384  88
385  98
386  88
387  95
388  84
389  90
390  82
391  101
392  80
393  89
394  75
395  74
396  82
397  95
398  81
399  78
400  92
401  87
402  90
403  90
404  96
405  101
406  93
407  79
408  107
409  90
410  100
411  84
412  77
413  77
414  96
415  95
416  91
417  83
418  80
419  90
420  78
421  90
422  99
423  91
424  93
425  95
426  98
427  78
428  96
429  86
430  86
431  85
432  94
433  83
434  92
435  95
436  73
437  84
438  88
439  93
440  84
441  70
442  85
443  94
444  86
445  90
446  87
447  84
448  87
449  100
450  92
451  94
452  92
453  97
454  83
455  84
456  105
457  85
458  94
459  83
460  91
461  97
462  88
463  97
464  80
465  81
466  99
467  78
468  86
469  82
470  95
471  96
472  96
473  83
474  89
475  96
476  108
477  86
478  90
479  89
480  84
481  84
482  85
483  100
484  87
485  91
486  93
487  81
488  94
489  93
490  79
491  103
492  85
493  81
494  106
495  93
496  84
497  90
498  88
499  94
500  91
501  102
502  91
503  86
504  84
505  102
506  99
507  74
508  99
509  67
510  98
511  74
512  102
513  100
514  88
515  97
516  79
517  92
518  79
519  98
520  79
521  83
522  79
523  89
524  92
525  75
526  73
527  98
528  94
529  87
530  92
531  72
532  78
533  85
534  87
535  82
536  73
537  85
538  81
539  82
540  79
541  74
542  69
543  68
544  75
545  67
546  71
547  82
548  73
549  71
550  85
551  61
552  84
553  85
554  83
555  78
556  57
557  88
558  62
559  80
560  71
561  71
562  77
563  73
564  62
565  62
566  63
567  48
568  55
569  58
570  68
571  50
572  68
573  59
574  65
575  55
576  60
577  53
578  56
579  57
580  55
581  59
582  59
583  45
584  45
585  64
586  58
587  52
588  41
589  60
590  63
591  36
592  56
593  54
594  52
595  52
596  61
597  52
598  56
599  49
600  58
601  56
602  48
603  53
604  57
605  53
606  63
607  55
608  66
609  60
610  69
611  50
612  64
613  74
614  52
615  68
616  61
617  75
618  66
619  57
620  65
621  74
622  81
623  82
624  90
625  89
626  107
627  85
628  89
629  91
630  78
631  88
632  94
633  104
634  94
635  115
636  117
637  122
638  124
639  116
640  107
641  131
642  124
643  123
644  141
645  131
646  106
647  130
648  139
649  136
650  131
651  134
652  141
653  165
654  148
655  143
656  155
657  140
658  137
659  134
660  146
661  157
662  147
663  158
664  166
665  142
666  149
667  158
668  143
669  141
670  153
671  117
672  138
673  132
674  132
675  144
676  121
677  148
678  127
679  120
680  122
681  121
682  117
683  117
684  101
685  138
686  107
687  104
688  110
689  107
690  108
691  105
692  114
693  103
694  80
695  70
696  96
697  92
698  94
699  74
700  88
701  77
702  66
703  71
704  88
705  67
706  66
707  61
708  68
709  79
710  53
711  77
712  48
713  72
714  59
715  55
716  55
717  57
718  41
719  45
720  61
721  50
722  43
723  51
724  40
725  46
726  34
727  45
728  42
729  39
730  37
731  35
732  37
733  35
734  36
735  25
736  32
737  31
738  39
739  31
740  25
741  23
742  32
743  28
744  19
745  29
746  22
747  37
748  25
749  22
750  22
751  30
752  27
753  19
754  27
755  21
756  22
757  18
758  15
759  19
760  20
761  18
762  13
763  13
764  14
765  7
766  11
767  15
768  9
769  21
770  10
771  13
772  19
773  16
774  13
775  14
776  12
777  9
778  17
779  9
780  15
781  8
782  18
783  8
784  11
785  11
786  9
787  11
788  7
789  9
790  10
791  7
792  8
793  13
794  9
795  4
796  8
797  8
798  8
799  7
800  8
801  6
802  4
803  10
804  7
805  12
806  8
807  6
808  2
809  10
810  3
811  8
812  5
813  7
814  48
815  4
816  7
817  6
818  7
819  5
820  6
821  6
822  3
823  3
824  3
825  6
826  8
827  7
828  8
829  7
830  9
831  4
832  19
833  10
834  25
835  30
836  47
837  60
838  63
839  63
840  44
841  51
842  80
843  210
844  139
845  164
846  13
847  0
848  0
849  0
850  0
851  0
852  0
853  0
854  0
855  0
856  0
857  0
858  0
859  0
860  0
861  0
862  0
863  0
864  0
865  0
866  0
867  0
868  0
869  0
870  0
871  0
872  0
873  0
874  0
875  0
876  0
877  0
878  0
879  0
880  0
881  0
882  0
883  0
884  0
885  0
886  0
887  0
888  0
889  0
890  0
891  0
892  0
893  0
894  0
895  0
896  0
897  0
898  0
899  0
900  0
901  0
902  0
903  0
904  0
905  0
906  0
907  0
908  0
909  0
910  0
911  0
912  0
913  0
914  0
915  0
916  0
917  0
918  0
919  0
920  0
921  0
922  0
923  0
924  0
925  0
926  0
927  0
928  0
929  0
930  0
931  0
932  0
933  0
934  0
935  0
936  0
937  0
938  0
939  0
940  0
941  0
942  0
943  0
944  1
945  0
946  1
947  0
948  0
949  0
950  0
951  0
952  0
953  0
954  0
955  0
956  1
957  0
958  0
959  0
960  0
961  1
962  0
963  0
964  1
965  0
966  0
967  0
968  1
969  0
970  0
971  0
972  0
973  0
974  0
975  0
976  1
977  0
978  1
979  0
980  1
981  1
982  0
983  1
984  2
985  0
986  0
987  0
988  0
989  0
990  0
991  0
992  0
993  2
994  1
995  0
996  0
997  0
998  0
999  0
1000  1
1001  1
1002  0
1003  0
1004  0
1005  0
1006  0
1007  0
1008  3
1009  2
1010  1
1011  2
1012  3
1013  0
1014  2
1015  2
1016  5
1017  1
1018  0
1019  1
1020  2
1021  2
1022  1
1023  17
