0  1637
1  2348
2  5345
3  12148
4  25257
5  37429
6  40064
7  29104
8  17487
9  7334
10  3192
11  1678
12  971
13  600
14  456
15  301
16  282
17  227
18  162
19  193
20  163
21  128
22  118
23  95
24  118
25  67
26  76
27  61
28  60
29  54
30  57
31  51
32  37
33  42
34  47
35  31
36  33
37  26
38  29
39  22
40  37
41  31
42  20
43  28
44  33
45  25
46  35
47  30
48  27
49  33
50  29
51  36
52  27
53  25
54  29
55  38
56  26
57  35
58  21
59  28
60  22
61  25
62  30
63  31
64  27
65  24
66  22
67  29
68  31
69  25
70  17
71  32
72  36
73  24
74  35
75  22
76  40
77  37
78  23
79  32
80  26
81  31
82  28
83  32
84  24
85  32
86  27
87  34
88  35
89  39
90  26
91  25
92  33
93  34
94  32
95  30
96  44
97  32
98  47
99  43
100  41
101  42
102  33
103  34
104  41
105  33
106  33
107  41
108  45
109  41
110  31
111  29
112  40
113  27
114  43
115  37
116  28
117  33
118  33
119  37
120  47
121  59
122  67
123  143
124  220
125  355
126  484
127  486
128  543
129  525
130  534
131  487
132  517
133  501
134  458
135  475
136  488
137  470
138  426
139  471
140  420
141  416
142  445
143  414
144  447
145  402
146  437
147  441
148  416
149  434
150  432
151  396
152  440
153  431
154  409
155  403
156  368
157  364
158  399
159  368
160  402
161  356
162  333
163  318
164  366
165  311
166  304
167  360
168  323
169  316
170  307
171  332
172  317
173  288
174  276
175  258
176  274
177  241
178  243
179  244
180  237
181  211
182  220
183  196
184  203
185  195
186  182
187  176
188  165
189  190
190  189
191  153
192  159
193  152
194  162
195  155
196  153
197  152
198  149
199  149
200  152
201  122
202  168
203  135
204  163
205  126
206  156
207  139
208  124
209  150
210  140
211  118
212  165
213  135
214  127
215  149
216  172
217  159
218  149
219  148
220  153
221  159
222  148
223  177
224  155
225  193
226  177
227  167
228  215
229  196
230  215
231  228
232  242
233  239
234  245
235  272
236  290
237  331
238  351
239  351
240  338
241  422
242  412
243  449
244  486
245  491
246  542
247  575
248  626
249  642
250  722
251  717
252  750
253  768
254  836
255  775
256  883
257  849
258  884
259  834
260  913
261  840
262  836
263  752
264  828
265  757
266  721
267  726
268  692
269  627
270  568
271  563
272  553
273  467
274  415
275  407
276  356
277  320
278  292
279  273
280  220
281  208
282  183
283  145
284  119
285  141
286  129
287  91
288  95
289  77
290  75
291  58
292  71
293  53
294  63
295  55
296  54
297  64
298  54
299  57
300  56
301  43
302  56
303  53
304  48
305  58
306  48
307  55
308  54
309  51
310  48
311  51
312  52
313  45
314  46
315  42
316  45
317  41
318  43
319  38
320  45
321  38
322  46
323  36
324  50
325  44
326  51
327  44
328  34
329  49
330  40
331  49
332  46
333  48
334  51
335  42
336  45
337  39
338  49
339  51
340  36
341  38
342  43
343  53
344  47
345  42
346  40
347  43
348  46
349  49
350  46
351  31
352  48
353  46
354  48
355  37
356  48
357  33
358  45
359  38
360  42
361  36
362  56
363  42
364  47
365  50
366  49
367  39
368  42
369  48
370  41
371  40
372  45
373  41
374  41
375  40
376  44
377  58
378  47
379  39
380  61
381  32
382  55
383  41
384  40
385  48
386  29
387  47
388  50
389  55
390  40
391  45
392  55
393  46
394  36
395  39
396  39
397  48
398  54
399  48
400  31
401  51
402  50
403  35
404  44
405  47
406  42
407  41
408  36
409  32
410  47
411  45
412  50
413  43
414  34
415  51
416  33
417  40
418  47
419  56
420  38
421  42
422  38
423  44
424  33
425  44
426  54
427  41
428  50
429  52
430  60
431  41
432  48
433  51
434  41
435  53
436  41
437  41
438  52
439  44
440  51
441  55
442  49
443  42
444  56
445  47
446  47
447  48
448  57
449  46
450  54
451  49
452  35
453  49
454  62
455  37
456  47
457  46
458  37
459  53
460  46
461  45
462  48
463  43
464  54
465  42
466  43
467  42
468  50
469  48
470  47
471  45
472  54
473  51
474  48
475  47
476  58
477  57
478  51
479  58
480  45
481  40
482  48
483  49
484  50
485  40
486  42
487  47
488  59
489  45
490  56
491  44
492  52
493  39
494  50
495  58
496  54
497  52
498  60
499  44
500  48
501  47
502  47
503  38
504  43
505  40
506  47
507  35
508  41
509  50
510  48
511  30
512  36
513  41
514  31
515  28
516  44
517  45
518  33
519  31
520  22
521  36
522  30
523  25
524  38
525  37
526  31
527  30
528  26
529  29
530  23
531  32
532  23
533  19
534  26
535  21
536  23
537  23
538  22
539  17
540  23
541  20
542  24
543  28
544  27
545  16
546  19
547  23
548  16
549  14
550  23
551  17
552  21
553  31
554  24
555  13
556  24
557  18
558  21
559  28
560  20
561  15
562  28
563  16
564  22
565  20
566  19
567  23
568  20
569  21
570  30
571  32
572  25
573  31
574  21
575  17
576  26
577  19
578  26
579  32
580  37
581  34
582  26
583  33
584  45
585  41
586  48
587  39
588  32
589  41
590  40
591  43
592  56
593  50
594  68
595  55
596  61
597  43
598  57
599  49
600  68
601  66
602  62
603  59
604  54
605  69
606  75
607  69
608  73
609  79
610  61
611  60
612  76
613  59
614  78
615  53
616  75
617  72
618  76
619  84
620  83
621  56
622  54
623  70
624  68
625  58
626  44
627  65
628  52
629  57
630  54
631  55
632  53
633  55
634  51
635  56
636  45
637  45
638  41
639  46
640  39
641  37
642  27
643  36
644  29
645  25
646  27
647  19
648  24
649  15
650  19
651  25
652  23
653  17
654  10
655  21
656  8
657  10
658  12
659  13
660  4
661  4
662  13
663  7
664  9
665  4
666  4
667  7
668  13
669  4
670  2
671  2
672  5
673  3
674  6
675  4
676  5
677  5
678  2
679  5
680  3
681  1
682  3
683  4
684  4
685  3
686  4
687  2
688  3
689  1
690  1
691  3
692  3
693  4
694  1
695  3
696  5
697  4
698  3
699  3
700  5
701  2
702  2
703  2
704  2
705  2
706  0
707  6
708  1
709  4
710  2
711  2
712  3
713  4
714  4
715  2
716  3
717  0
718  1
719  2
720  2
721  0
722  1
723  3
724  4
725  3
726  1
727  3
728  1
729  2
730  0
731  0
732  2
733  2
734  1
735  1
736  1
737  1
738  1
739  3
740  1
741  0
742  3
743  3
744  0
745  0
746  0
747  4
748  1
749  0
750  0
751  1
752  0
753  2
754  2
755  0
756  1
757  1
758  0
759  2
760  2
761  0
762  0
763  1
764  0
765  1
766  1
767  1
768  0
769  2
770  1
771  0
772  1
773  0
774  1
775  1
776  1
777  2
778  2
779  0
780  2
781  1
782  0
783  1
784  0
785  0
786  0
787  1
788  0
789  0
790  2
791  1
792  3
793  2
794  1
795  0
796  0
797  3
798  0
799  1
800  1
801  0
802  2
803  2
804  4
805  4
806  1
807  3
808  5
809  6
810  9
811  8
812  10
813  8
814  35
815  96
816  45
817  18
818  0
819  0
820  0
821  0
822  0
823  0
824  0
825  0
826  0
827  0
828  0
829  0
830  0
831  0
832  0
833  0
834  0
835  0
836  0
837  0
838  0
839  0
840  0
841  0
842  0
843  0
844  0
845  0
846  0
847  0
848  0
849  0
850  0
851  0
852  0
853  0
854  0
855  0
856  0
857  0
858  0
859  0
860  0
861  0
862  0
863  0
864  0
865  0
866  0
867  0
868  0
869  0
870  0
871  0
872  0
873  0
874  0
875  0
876  0
877  0
878  0
879  0
880  0
881  0
882  0
883  0
884  0
885  0
886  0
887  0
888  0
889  0
890  0
891  0
892  0
893  0
894  0
895  0
896  0
897  0
898  0
899  0
900  0
901  0
902  0
903  0
904  0
905  0
906  0
907  0
908  0
909  0
910  0
911  0
912  0
913  0
914  0
915  0
916  0
917  0
918  0
919  0
920  0
921  0
922  0
923  0
924  0
925  0
926  0
927  0
928  0
929  0
930  0
931  0
932  0
933  0
934  0
935  0
936  0
937  0
938  0
939  0
940  0
941  0
942  2
943  0
944  1
945  1
946  2
947  2
948  1
949  1
950  1
951  0
952  0
953  0
954  0
955  0
956  0
957  1
958  0
959  0
960  2
961  0
962  0
963  0
964  0
965  1
966  1
967  1
968  1
969  1
970  0
971  1
972  0
973  4
974  0
975  1
976  2
977  1
978  2
979  1
980  0
981  3
982  3
983  1
984  1
985  0
986  0
987  0
988  2
989  4
990  2
991  4
992  4
993  3
994  5
995  5
996  10
997  8
998  15
999  19
1000  16
1001  21
1002  21
1003  15
1004  11
1005  11
1006  7
1007  9
1008  12
1009  14
1010  19
1011  24
1012  19
1013  11
1014  20
1015  24
1016  23
1017  25
1018  33
1019  58
1020  96
1021  157
1022  300
1023  1195
