0  383
1  366
2  703
3  1392
4  2918
5  5567
6  9291
7  12467
8  14183
9  10441
10  6436
11  3405
12  1613
13  735
14  384
15  170
16  118
17  61
18  30
19  27
20  28
21  24
22  24
23  15
24  20
25  17
26  19
27  10
28  16
29  14
30  19
31  17
32  20
33  22
34  18
35  14
36  17
37  17
38  14
39  17
40  20
41  16
42  16
43  17
44  14
45  12
46  18
47  21
48  23
49  15
50  22
51  18
52  18
53  15
54  14
55  19
56  18
57  12
58  22
59  11
60  20
61  21
62  14
63  16
64  27
65  15
66  21
67  12
68  16
69  18
70  14
71  22
72  16
73  20
74  24
75  20
76  23
77  21
78  18
79  17
80  25
81  27
82  16
83  20
84  26
85  24
86  21
87  23
88  29
89  16
90  13
91  33
92  26
93  22
94  22
95  19
96  14
97  11
98  7
99  2
100  4
101  5
102  5
103  7
104  16
105  26
106  57
107  82
108  188
109  377
110  582
111  928
112  1085
113  1273
114  1231
115  1263
116  1292
117  1270
118  1276
119  1251
120  1297
121  1279
122  1286
123  1264
124  1216
125  1181
126  1205
127  1117
128  1177
129  1138
130  1181
131  1116
132  1088
133  1120
134  1075
135  1017
136  1130
137  978
138  1023
139  1020
140  1041
141  989
142  997
143  949
144  957
145  924
146  896
147  863
148  919
149  855
150  866
151  789
152  837
153  852
154  786
155  773
156  764
157  777
158  768
159  742
160  760
161  793
162  726
163  760
164  778
165  717
166  675
167  688
168  694
169  689
170  674
171  611
172  658
173  653
174  658
175  652
176  629
177  580
178  643
179  594
180  556
181  596
182  593
183  558
184  547
185  567
186  542
187  528
188  553
189  478
190  528
191  508
192  486
193  505
194  527
195  438
196  515
197  449
198  429
199  409
200  472
201  390
202  432
203  409
204  399
205  357
206  381
207  372
208  377
209  352
210  322
211  295
212  354
213  313
214  325
215  313
216  322
217  309
218  291
219  295
220  282
221  283
222  274
223  270
224  293
225  254
226  253
227  241
228  307
229  251
230  240
231  255
232  275
233  272
234  252
235  245
236  268
237  287
238  252
239  268
240  285
241  282
242  273
243  298
244  357
245  330
246  347
247  326
248  369
249  365
250  397
251  404
252  484
253  492
254  467
255  487
256  539
257  565
258  572
259  649
260  716
261  726
262  733
263  802
264  880
265  934
266  948
267  948
268  1072
269  1071
270  1088
271  1043
272  1123
273  1173
274  1261
275  1264
276  1208
277  1280
278  1312
279  1227
280  1333
281  1314
282  1334
283  1325
284  1266
285  1339
286  1274
287  1205
288  1315
289  1168
290  1262
291  1198
292  1189
293  1075
294  1146
295  998
296  1064
297  980
298  978
299  942
300  888
301  871
302  804
303  781
304  779
305  752
306  779
307  629
308  634
309  667
310  648
311  565
312  512
313  492
314  519
315  504
316  435
317  407
318  383
319  386
320  375
321  368
322  303
323  332
324  313
325  290
326  273
327  246
328  276
329  219
330  239
331  187
332  239
333  237
334  174
335  171
336  183
337  164
338  163
339  171
340  163
341  151
342  152
343  139
344  117
345  113
346  148
347  118
348  116
349  115
350  102
351  117
352  96
353  122
354  108
355  88
356  107
357  107
358  108
359  111
360  111
361  98
362  113
363  101
364  72
365  97
366  90
367  91
368  95
369  83
370  87
371  91
372  96
373  83
374  78
375  94
376  110
377  72
378  103
379  97
380  83
381  98
382  86
383  81
384  82
385  89
386  77
387  78
388  102
389  82
390  97
391  104
392  75
393  84
394  90
395  82
396  76
397  87
398  117
399  72
400  85
401  91
402  81
403  91
404  84
405  76
406  77
407  88
408  75
409  86
410  94
411  76
412  101
413  77
414  95
415  106
416  93
417  72
418  81
419  80
420  68
421  94
422  84
423  91
424  82
425  74
426  73
427  98
428  84
429  100
430  75
431  92
432  93
433  85
434  90
435  72
436  79
437  95
438  93
439  84
440  90
441  81
442  77
443  79
444  78
445  75
446  85
447  83
448  92
449  81
450  97
451  87
452  84
453  93
454  89
455  85
456  91
457  79
458  85
459  101
460  103
461  79
462  93
463  77
464  111
465  101
466  87
467  77
468  72
469  102
470  86
471  95
472  102
473  96
474  75
475  83
476  86
477  85
478  83
479  85
480  76
481  90
482  104
483  97
484  73
485  100
486  88
487  86
488  94
489  101
490  74
491  84
492  101
493  84
494  89
495  93
496  104
497  111
498  93
499  97
500  98
501  88
502  94
503  85
504  93
505  93
506  89
507  71
508  85
509  72
510  65
511  69
512  95
513  94
514  83
515  85
516  81
517  95
518  90
519  92
520  71
521  105
522  87
523  77
524  84
525  88
526  82
527  70
528  88
529  85
530  73
531  68
532  78
533  71
534  84
535  70
536  75
537  103
538  81
539  61
540  79
541  93
542  68
543  85
544  77
545  68
546  79
547  93
548  71
549  89
550  72
551  69
552  73
553  71
554  58
555  57
556  82
557  57
558  60
559  76
560  65
561  48
562  57
563  66
564  60
565  75
566  77
567  60
568  75
569  71
570  57
571  66
572  60
573  66
574  69
575  56
576  61
577  62
578  60
579  39
580  57
581  60
582  66
583  44
584  51
585  62
586  54
587  68
588  63
589  67
590  48
591  45
592  46
593  59
594  45
595  50
596  65
597  50
598  55
599  45
600  53
601  57
602  51
603  64
604  60
605  64
606  54
607  58
608  56
609  67
610  54
611  44
612  65
613  64
614  63
615  71
616  60
617  64
618  70
619  57
620  73
621  64
622  81
623  72
624  59
625  99
626  87
627  74
628  98
629  74
630  95
631  96
632  98
633  105
634  111
635  107
636  99
637  121
638  121
639  114
640  132
641  122
642  123
643  137
644  136
645  138
646  148
647  132
648  118
649  134
650  129
651  144
652  138
653  151
654  148
655  120
656  147
657  157
658  133
659  147
660  144
661  152
662  152
663  129
664  138
665  152
666  137
667  150
668  140
669  133
670  130
671  132
672  122
673  144
674  126
675  141
676  133
677  113
678  135
679  128
680  127
681  139
682  127
683  113
684  110
685  134
686  107
687  116
688  97
689  122
690  103
691  106
692  90
693  87
694  86
695  88
696  89
697  100
698  90
699  97
700  90
701  72
702  87
703  64
704  80
705  75
706  68
707  64
708  77
709  73
710  84
711  58
712  68
713  52
714  64
715  62
716  56
717  52
718  47
719  56
720  64
721  43
722  45
723  54
724  51
725  44
726  40
727  45
728  42
729  36
730  31
731  40
732  48
733  36
734  33
735  39
736  37
737  38
738  27
739  38
740  25
741  23
742  31
743  35
744  22
745  38
746  26
747  25
748  22
749  22
750  29
751  28
752  25
753  26
754  25
755  15
756  19
757  20
758  15
759  21
760  23
761  18
762  9
763  15
764  15
765  16
766  18
767  12
768  11
769  17
770  17
771  12
772  14
773  17
774  8
775  8
776  7
777  11
778  11
779  9
780  15
781  10
782  6
783  14
784  11
785  10
786  10
787  13
788  13
789  11
790  10
791  11
792  6
793  8
794  5
795  9
796  7
797  7
798  9
799  5
800  7
801  4
802  4
803  6
804  5
805  6
806  8
807  6
808  3
809  8
810  8
811  3
812  1
813  11
814  43
815  36
816  5
817  3
818  6
819  4
820  6
821  9
822  4
823  6
824  7
825  4
826  7
827  2
828  6
829  13
830  12
831  9
832  17
833  30
834  24
835  35
836  41
837  56
838  74
839  60
840  60
841  50
842  60
843  116
844  168
845  121
846  154
847  0
848  0
849  0
850  0
851  0
852  0
853  0
854  0
855  0
856  0
857  0
858  0
859  0
860  0
861  0
862  0
863  0
864  0
865  0
866  0
867  0
868  0
869  0
870  0
871  0
872  0
873  0
874  0
875  0
876  0
877  0
878  0
879  0
880  0
881  0
882  0
883  0
884  0
885  0
886  0
887  0
888  0
889  0
890  0
891  0
892  0
893  0
894  0
895  0
896  0
897  0
898  0
899  0
900  0
901  0
902  0
903  0
904  0
905  0
906  0
907  0
908  0
909  0
910  0
911  0
912  0
913  0
914  0
915  0
916  0
917  0
918  0
919  0
920  0
921  0
922  0
923  0
924  0
925  0
926  0
927  0
928  0
929  0
930  0
931  0
932  0
933  0
934  0
935  0
936  0
937  0
938  0
939  0
940  0
941  0
942  0
943  0
944  0
945  0
946  1
947  0
948  0
949  0
950  0
951  0
952  0
953  0
954  0
955  0
956  0
957  0
958  0
959  0
960  0
961  0
962  0
963  0
964  0
965  0
966  1
967  0
968  0
969  1
970  0
971  0
972  0
973  0
974  0
975  0
976  0
977  0
978  1
979  1
980  2
981  2
982  2
983  0
984  0
985  1
986  0
987  0
988  0
989  0
990  0
991  0
992  0
993  1
994  0
995  0
996  1
997  0
998  0
999  0
1000  1
1001  1
1002  0
1003  1
1004  1
1005  1
1006  2
1007  0
1008  3
1009  2
1010  2
1011  1
1012  5
1013  2
1014  2
1015  2
1016  2
1017  1
1018  4
1019  4
1020  4
1021  0
1022  2
1023  18
