0  369
1  324
2  783
3  1413
4  3063
5  5635
6  9608
7  13029
8  14761
9  10825
10  6627
11  3263
12  1541
13  665
14  298
15  153
16  90
17  69
18  41
19  37
20  18
21  20
22  24
23  7
24  15
25  10
26  10
27  10
28  14
29  7
30  11
31  12
32  12
33  12
34  11
35  8
36  11
37  9
38  10
39  11
40  18
41  10
42  5
43  7
44  13
45  20
46  15
47  12
48  16
49  7
50  11
51  9
52  15
53  19
54  12
55  17
56  14
57  14
58  16
59  14
60  8
61  17
62  12
63  15
64  11
65  18
66  12
67  18
68  18
69  14
70  21
71  14
72  12
73  10
74  14
75  18
76  19
77  15
78  22
79  15
80  17
81  17
82  16
83  16
84  11
85  15
86  14
87  16
88  20
89  17
90  18
91  13
92  16
93  22
94  18
95  12
96  10
97  9
98  9
99  7
100  2
101  4
102  4
103  3
104  15
105  28
106  37
107  65
108  192
109  349
110  603
111  932
112  1075
113  1208
114  1322
115  1287
116  1245
117  1316
118  1226
119  1238
120  1239
121  1255
122  1259
123  1186
124  1268
125  1208
126  1181
127  1146
128  1241
129  1137
130  1190
131  1089
132  1099
133  1125
134  1076
135  1018
136  1087
137  1022
138  1028
139  996
140  1073
141  995
142  948
143  892
144  898
145  953
146  857
147  890
148  868
149  916
150  882
151  841
152  866
153  850
154  808
155  755
156  782
157  785
158  773
159  777
160  714
161  703
162  727
163  730
164  689
165  682
166  706
167  648
168  678
169  682
170  661
171  707
172  681
173  609
174  659
175  594
176  635
177  608
178  626
179  589
180  564
181  597
182  577
183  528
184  562
185  526
186  550
187  528
188  588
189  483
190  488
191  517
192  496
193  464
194  476
195  454
196  448
197  423
198  443
199  437
200  435
201  444
202  457
203  406
204  396
205  371
206  366
207  384
208  381
209  374
210  332
211  317
212  335
213  320
214  359
215  326
216  326
217  305
218  296
219  295
220  325
221  293
222  276
223  264
224  279
225  261
226  272
227  277
228  272
229  222
230  239
231  227
232  270
233  256
234  260
235  259
236  261
237  269
238  286
239  265
240  283
241  295
242  303
243  296
244  297
245  329
246  329
247  310
248  339
249  376
250  407
251  404
252  470
253  489
254  500
255  487
256  573
257  575
258  629
259  660
260  681
261  717
262  782
263  783
264  915
265  887
266  1005
267  985
268  974
269  1022
270  1092
271  1118
272  1195
273  1137
274  1206
275  1190
276  1272
277  1219
278  1258
279  1258
280  1327
281  1370
282  1264
283  1330
284  1299
285  1290
286  1309
287  1245
288  1267
289  1259
290  1145
291  1168
292  1166
293  1096
294  1075
295  1077
296  1036
297  1003
298  959
299  956
300  967
301  880
302  849
303  796
304  721
305  746
306  723
307  707
308  633
309  625
310  538
311  544
312  536
313  520
314  502
315  443
316  478
317  373
318  391
319  354
320  372
321  321
322  344
323  299
324  317
325  305
326  291
327  240
328  239
329  202
330  231
331  242
332  223
333  193
334  180
335  185
336  187
337  149
338  156
339  150
340  153
341  137
342  130
343  145
344  142
345  104
346  138
347  119
348  105
349  122
350  122
351  120
352  109
353  84
354  116
355  101
356  79
357  109
358  122
359  100
360  106
361  96
362  89
363  98
364  92
365  104
366  95
367  95
368  104
369  90
370  99
371  100
372  66
373  87
374  95
375  100
376  91
377  83
378  89
379  80
380  71
381  83
382  83
383  96
384  102
385  78
386  95
387  90
388  80
389  80
390  82
391  73
392  77
393  83
394  82
395  91
396  87
397  83
398  85
399  103
400  88
401  98
402  86
403  86
404  74
405  79
406  88
407  99
408  78
409  87
410  82
411  68
412  88
413  98
414  84
415  88
416  91
417  82
418  100
419  80
420  99
421  91
422  99
423  87
424  95
425  81
426  94
427  87
428  88
429  95
430  73
431  77
432  99
433  77
434  93
435  95
436  94
437  94
438  84
439  92
440  84
441  98
442  88
443  94
444  115
445  76
446  71
447  75
448  90
449  92
450  92
451  104
452  89
453  83
454  90
455  87
456  82
457  71
458  96
459  92
460  86
461  91
462  98
463  95
464  100
465  100
466  90
467  97
468  87
469  87
470  98
471  85
472  110
473  74
474  73
475  71
476  83
477  102
478  103
479  104
480  101
481  99
482  78
483  86
484  79
485  110
486  87
487  94
488  93
489  93
490  92
491  97
492  97
493  79
494  76
495  87
496  79
497  91
498  79
499  90
500  95
501  114
502  92
503  81
504  90
505  100
506  96
507  80
508  92
509  90
510  98
511  60
512  88
513  110
514  86
515  85
516  86
517  95
518  86
519  96
520  74
521  84
522  76
523  81
524  81
525  98
526  94
527  84
528  81
529  97
530  88
531  97
532  79
533  93
534  74
535  75
536  112
537  77
538  79
539  92
540  61
541  68
542  72
543  59
544  69
545  81
546  81
547  73
548  73
549  68
550  71
551  83
552  66
553  88
554  74
555  51
556  89
557  83
558  68
559  61
560  74
561  65
562  67
563  69
564  50
565  64
566  63
567  57
568  61
569  65
570  77
571  66
572  62
573  68
574  62
575  60
576  60
577  51
578  60
579  63
580  61
581  66
582  56
583  58
584  66
585  50
586  61
587  56
588  52
589  41
590  58
591  44
592  51
593  56
594  63
595  46
596  50
597  58
598  55
599  48
600  56
601  57
602  50
603  56
604  59
605  55
606  52
607  58
608  54
609  64
610  57
611  61
612  62
613  64
614  61
615  60
616  73
617  70
618  65
619  77
620  82
621  81
622  66
623  62
624  70
625  66
626  81
627  88
628  103
629  90
630  87
631  94
632  103
633  113
634  98
635  107
636  119
637  117
638  122
639  118
640  126
641  131
642  110
643  116
644  133
645  122
646  136
647  121
648  128
649  134
650  128
651  127
652  144
653  166
654  137
655  145
656  135
657  177
658  150
659  127
660  159
661  161
662  145
663  137
664  134
665  137
666  145
667  140
668  149
669  145
670  146
671  139
672  167
673  133
674  131
675  137
676  120
677  137
678  134
679  119
680  109
681  120
682  128
683  106
684  108
685  130
686  111
687  127
688  113
689  113
690  94
691  93
692  104
693  96
694  100
695  95
696  94
697  105
698  91
699  96
700  79
701  87
702  79
703  80
704  77
705  62
706  68
707  66
708  73
709  75
710  71
711  62
712  61
713  64
714  60
715  76
716  67
717  58
718  41
719  50
720  50
721  48
722  60
723  62
724  38
725  42
726  39
727  45
728  37
729  38
730  51
731  38
732  42
733  31
734  42
735  28
736  37
737  39
738  34
739  32
740  29
741  33
742  32
743  17
744  15
745  34
746  37
747  31
748  18
749  26
750  25
751  23
752  24
753  17
754  19
755  24
756  17
757  20
758  18
759  18
760  22
761  27
762  21
763  14
764  16
765  14
766  9
767  8
768  17
769  14
770  11
771  14
772  14
773  14
774  15
775  18
776  9
777  10
778  9
779  7
780  10
781  18
782  13
783  8
784  7
785  14
786  6
787  9
788  9
789  7
790  9
791  10
792  14
793  7
794  9
795  0
796  15
797  7
798  11
799  11
800  5
801  7
802  2
803  3
804  6
805  11
806  8
807  10
808  5
809  3
810  6
811  3
812  6
813  2
814  39
815  24
816  2
817  6
818  5
819  7
820  9
821  3
822  5
823  2
824  2
825  6
826  2
827  9
828  7
829  9
830  7
831  8
832  13
833  15
834  21
835  23
836  49
837  58
838  62
839  69
840  62
841  40
842  66
843  163
844  138
845  132
846  80
847  0
848  0
849  0
850  0
851  0
852  0
853  0
854  0
855  0
856  0
857  0
858  0
859  0
860  0
861  0
862  0
863  0
864  0
865  0
866  0
867  0
868  0
869  0
870  0
871  0
872  0
873  0
874  0
875  0
876  0
877  0
878  0
879  0
880  0
881  0
882  0
883  0
884  0
885  0
886  0
887  0
888  0
889  0
890  0
891  0
892  0
893  0
894  0
895  0
896  0
897  0
898  0
899  0
900  0
901  0
902  0
903  0
904  0
905  0
906  0
907  0
908  0
909  0
910  0
911  0
912  0
913  0
914  0
915  0
916  0
917  0
918  0
919  0
920  0
921  0
922  0
923  0
924  0
925  0
926  0
927  0
928  0
929  0
930  0
931  0
932  0
933  0
934  0
935  0
936  0
937  0
938  0
939  0
940  0
941  0
942  0
943  0
944  0
945  0
946  0
947  0
948  0
949  0
950  0
951  0
952  0
953  0
954  0
955  0
956  1
957  0
958  0
959  0
960  0
961  0
962  0
963  1
964  0
965  1
966  0
967  0
968  0
969  0
970  0
971  0
972  0
973  0
974  0
975  0
976  0
977  0
978  0
979  0
980  1
981  0
982  0
983  1
984  0
985  2
986  0
987  0
988  0
989  0
990  0
991  0
992  1
993  0
994  0
995  1
996  0
997  0
998  0
999  1
1000  1
1001  0
1002  1
1003  0
1004  0
1005  1
1006  2
1007  2
1008  0
1009  2
1010  0
1011  2
1012  5
1013  2
1014  4
1015  1
1016  2
1017  1
1018  0
1019  1
1020  1
1021  3
1022  1
1023  19
