0  302
1  285
2  599
3  1156
4  2292
5  4429
6  7435
7  10076
8  11271
9  8447
10  5178
11  2557
12  1281
13  609
14  334
15  194
16  126
17  76
18  70
19  55
20  56
21  56
22  54
23  54
24  46
25  56
26  57
27  53
28  42
29  59
30  49
31  38
32  58
33  52
34  69
35  55
36  45
37  59
38  50
39  50
40  44
41  52
42  55
43  55
44  63
45  54
46  43
47  39
48  54
49  47
50  69
51  47
52  46
53  48
54  59
55  61
56  63
57  59
58  61
59  52
60  54
61  61
62  54
63  48
64  65
65  56
66  46
67  44
68  67
69  60
70  57
71  46
72  55
73  50
74  58
75  67
76  57
77  62
78  49
79  58
80  45
81  57
82  52
83  57
84  61
85  58
86  60
87  66
88  56
89  80
90  62
91  74
92  66
93  43
94  62
95  59
96  55
97  24
98  13
99  12
100  5
101  4
102  6
103  5
104  8
105  18
106  47
107  96
108  153
109  362
110  606
111  866
112  1053
113  1238
114  1367
115  1285
116  1324
117  1334
118  1299
119  1263
120  1256
121  1254
122  1245
123  1210
124  1252
125  1153
126  1235
127  1144
128  1243
129  1175
130  1122
131  1128
132  1089
133  1060
134  1082
135  1008
136  1083
137  1004
138  1021
139  1002
140  977
141  967
142  945
143  888
144  890
145  903
146  886
147  846
148  877
149  918
150  826
151  822
152  857
153  877
154  770
155  822
156  752
157  827
158  777
159  735
160  751
161  728
162  762
163  667
164  704
165  743
166  642
167  656
168  620
169  685
170  668
171  578
172  661
173  650
174  641
175  616
176  604
177  606
178  625
179  607
180  597
181  595
182  563
183  533
184  582
185  554
186  497
187  574
188  516
189  493
190  468
191  496
192  532
193  488
194  470
195  488
196  465
197  458
198  420
199  417
200  399
201  416
202  407
203  370
204  393
205  385
206  393
207  349
208  343
209  360
210  355
211  349
212  328
213  351
214  318
215  284
216  294
217  309
218  308
219  286
220  283
221  268
222  271
223  260
224  270
225  267
226  280
227  264
228  269
229  262
230  299
231  256
232  246
233  254
234  259
235  235
236  236
237  260
238  243
239  278
240  261
241  279
242  285
243  271
244  281
245  337
246  314
247  355
248  348
249  381
250  357
251  372
252  422
253  462
254  490
255  462
256  588
257  578
258  629
259  672
260  677
261  729
262  770
263  760
264  882
265  903
266  971
267  950
268  1055
269  998
270  1076
271  1085
272  1163
273  1234
274  1120
275  1182
276  1253
277  1271
278  1237
279  1249
280  1381
281  1310
282  1275
283  1323
284  1325
285  1385
286  1253
287  1187
288  1283
289  1213
290  1260
291  1170
292  1134
293  1071
294  1101
295  1073
296  1013
297  977
298  933
299  940
300  866
301  838
302  783
303  801
304  775
305  746
306  698
307  662
308  667
309  602
310  598
311  538
312  541
313  518
314  481
315  451
316  423
317  410
318  401
319  372
320  398
321  387
322  297
323  274
324  295
325  327
326  286
327  274
328  271
329  228
330  215
331  232
332  189
333  200
334  176
335  178
336  171
337  195
338  164
339  147
340  166
341  140
342  146
343  162
344  131
345  125
346  123
347  111
348  119
349  125
350  102
351  122
352  111
353  107
354  113
355  99
356  99
357  107
358  91
359  91
360  101
361  100
362  97
363  108
364  106
365  111
366  73
367  91
368  89
369  94
370  63
371  95
372  84
373  90
374  84
375  89
376  82
377  104
378  97
379  82
380  86
381  96
382  97
383  108
384  89
385  92
386  85
387  69
388  77
389  90
390  88
391  83
392  79
393  90
394  83
395  95
396  78
397  69
398  79
399  87
400  101
401  77
402  89
403  88
404  82
405  95
406  97
407  85
408  99
409  89
410  86
411  69
412  99
413  83
414  83
415  83
416  83
417  93
418  63
419  97
420  82
421  93
422  96
423  83
424  92
425  96
426  89
427  89
428  101
429  85
430  85
431  90
432  92
433  73
434  80
435  104
436  75
437  109
438  80
439  81
440  103
441  84
442  109
443  94
444  99
445  72
446  87
447  75
448  80
449  81
450  87
451  75
452  93
453  94
454  89
455  93
456  91
457  105
458  79
459  106
460  96
461  89
462  99
463  106
464  90
465  106
466  81
467  108
468  94
469  100
470  81
471  95
472  104
473  105
474  88
475  83
476  117
477  92
478  73
479  95
480  82
481  76
482  97
483  88
484  99
485  78
486  108
487  75
488  92
489  69
490  89
491  87
492  102
493  95
494  93
495  84
496  82
497  85
498  84
499  77
500  94
501  96
502  111
503  75
504  72
505  95
506  90
507  80
508  85
509  82
510  81
511  54
512  87
513  90
514  101
515  93
516  99
517  72
518  97
519  97
520  81
521  99
522  99
523  86
524  96
525  84
526  76
527  85
528  83
529  81
530  65
531  85
532  85
533  81
534  92
535  81
536  88
537  78
538  74
539  84
540  80
541  78
542  65
543  76
544  78
545  75
546  72
547  75
548  76
549  66
550  60
551  73
552  83
553  66
554  68
555  72
556  65
557  73
558  69
559  70
560  57
561  69
562  70
563  56
564  72
565  59
566  61
567  52
568  67
569  60
570  65
571  58
572  54
573  63
574  55
575  48
576  53
577  59
578  59
579  56
580  53
581  54
582  56
583  49
584  45
585  50
586  51
587  61
588  66
589  59
590  45
591  47
592  49
593  53
594  47
595  47
596  50
597  54
598  56
599  54
600  51
601  49
602  60
603  63
604  61
605  45
606  61
607  52
608  65
609  56
610  60
611  61
612  48
613  55
614  64
615  55
616  70
617  66
618  60
619  70
620  66
621  80
622  81
623  78
624  80
625  98
626  102
627  84
628  97
629  96
630  90
631  84
632  101
633  119
634  90
635  101
636  104
637  106
638  113
639  92
640  108
641  136
642  132
643  112
644  112
645  119
646  131
647  136
648  131
649  113
650  121
651  149
652  143
653  151
654  158
655  151
656  168
657  160
658  147
659  126
660  141
661  154
662  169
663  141
664  136
665  158
666  159
667  153
668  170
669  143
670  154
671  135
672  141
673  133
674  138
675  121
676  134
677  138
678  128
679  110
680  124
681  129
682  118
683  130
684  126
685  142
686  105
687  93
688  101
689  119
690  103
691  93
692  104
693  94
694  100
695  86
696  79
697  83
698  89
699  104
700  101
701  85
702  79
703  70
704  70
705  70
706  66
707  82
708  73
709  78
710  79
711  67
712  59
713  76
714  60
715  47
716  62
717  57
718  46
719  58
720  44
721  40
722  53
723  51
724  47
725  52
726  47
727  39
728  48
729  25
730  47
731  31
732  44
733  32
734  31
735  37
736  32
737  36
738  29
739  33
740  29
741  28
742  30
743  25
744  22
745  26
746  26
747  22
748  22
749  17
750  25
751  22
752  19
753  16
754  22
755  21
756  18
757  23
758  17
759  20
760  27
761  9
762  15
763  7
764  22
765  10
766  20
767  16
768  20
769  24
770  14
771  17
772  18
773  13
774  15
775  15
776  10
777  17
778  11
779  14
780  15
781  10
782  6
783  8
784  14
785  7
786  11
787  9
788  9
789  15
790  10
791  11
792  12
793  9
794  6
795  7
796  12
797  7
798  7
799  3
800  7
801  9
802  4
803  9
804  9
805  4
806  4
807  6
808  6
809  6
810  3
811  3
812  7
813  7
814  49
815  27
816  6
817  3
818  4
819  7
820  4
821  6
822  1
823  2
824  7
825  4
826  8
827  12
828  5
829  11
830  13
831  15
832  7
833  11
834  12
835  19
836  46
837  48
838  51
839  56
840  24
841  45
842  60
843  124
844  171
845  135
846  133
847  0
848  0
849  0
850  0
851  0
852  0
853  0
854  0
855  0
856  0
857  0
858  0
859  0
860  0
861  0
862  0
863  0
864  0
865  0
866  0
867  0
868  0
869  0
870  0
871  0
872  0
873  0
874  0
875  0
876  0
877  0
878  0
879  0
880  0
881  0
882  0
883  0
884  0
885  0
886  0
887  0
888  0
889  0
890  0
891  0
892  0
893  0
894  0
895  0
896  0
897  0
898  0
899  0
900  0
901  0
902  0
903  0
904  0
905  0
906  0
907  0
908  0
909  0
910  0
911  0
912  0
913  0
914  0
915  0
916  0
917  0
918  0
919  0
920  0
921  0
922  0
923  0
924  0
925  0
926  0
927  0
928  0
929  0
930  0
931  0
932  0
933  0
934  0
935  0
936  0
937  0
938  0
939  0
940  0
941  0
942  0
943  0
944  0
945  0
946  0
947  0
948  0
949  0
950  0
951  0
952  0
953  0
954  0
955  0
956  0
957  0
958  0
959  0
960  0
961  1
962  0
963  0
964  0
965  0
966  0
967  0
968  0
969  0
970  0
971  0
972  1
973  1
974  0
975  0
976  1
977  0
978  0
979  0
980  0
981  0
982  1
983  0
984  0
985  0
986  0
987  0
988  0
989  0
990  0
991  0
992  0
993  1
994  1
995  0
996  0
997  1
998  0
999  1
1000  0
1001  0
1002  0
1003  0
1004  0
1005  1
1006  0
1007  2
1008  0
1009  1
1010  1
1011  1
1012  0
1013  2
1014  2
1015  1
1016  2
1017  1
1018  1
1019  4
1020  0
1021  3
1022  3
1023  10
