0  1649
1  2312
2  4903
3  11895
4  25394
5  39392
6  43005
7  30136
8  17637
9  7139
10  3118
11  1636
12  1010
13  696
14  449
15  321
16  285
17  214
18  203
19  163
20  188
21  122
22  126
23  80
24  84
25  52
26  68
27  54
28  47
29  41
30  30
31  23
32  28
33  26
34  20
35  13
36  13
37  12
38  11
39  14
40  14
41  16
42  8
43  9
44  14
45  9
46  9
47  10
48  6
49  5
50  8
51  12
52  2
53  13
54  6
55  9
56  10
57  14
58  7
59  14
60  10
61  13
62  4
63  7
64  11
65  6
66  8
67  6
68  6
69  8
70  6
71  5
72  7
73  5
74  4
75  7
76  8
77  14
78  9
79  9
80  11
81  4
82  7
83  9
84  12
85  8
86  9
87  8
88  7
89  7
90  5
91  8
92  13
93  9
94  8
95  4
96  4
97  9
98  5
99  20
100  16
101  12
102  7
103  14
104  6
105  8
106  9
107  11
108  10
109  15
110  12
111  10
112  6
113  10
114  8
115  10
116  13
117  8
118  19
119  19
120  12
121  26
122  63
123  110
124  229
125  379
126  503
127  531
128  571
129  611
130  589
131  551
132  579
133  522
134  574
135  546
136  545
137  492
138  494
139  498
140  510
141  471
142  438
143  429
144  456
145  442
146  463
147  403
148  421
149  414
150  421
151  403
152  428
153  401
154  397
155  406
156  409
157  394
158  400
159  371
160  387
161  371
162  359
163  342
164  401
165  406
166  351
167  372
168  328
169  379
170  347
171  342
172  313
173  358
174  310
175  305
176  309
177  256
178  303
179  260
180  272
181  274
182  218
183  223
184  237
185  226
186  214
187  206
188  193
189  184
190  199
191  170
192  190
193  173
194  151
195  170
196  152
197  132
198  151
199  146
200  149
201  154
202  146
203  147
204  135
205  158
206  132
207  115
208  165
209  159
210  122
211  143
212  126
213  121
214  125
215  173
216  139
217  151
218  144
219  143
220  139
221  158
222  164
223  155
224  157
225  163
226  184
227  159
228  146
229  229
230  175
231  216
232  195
233  208
234  217
235  218
236  250
237  279
238  308
239  289
240  343
241  343
242  371
243  424
244  417
245  462
246  429
247  489
248  518
249  588
250  635
251  616
252  722
253  709
254  776
255  709
256  861
257  816
258  881
259  882
260  878
261  874
262  892
263  877
264  953
265  854
266  881
267  813
268  876
269  810
270  823
271  720
272  717
273  653
274  582
275  543
276  534
277  439
278  443
279  381
280  333
281  319
282  279
283  252
284  238
285  196
286  184
287  148
288  155
289  145
290  106
291  105
292  92
293  87
294  92
295  65
296  61
297  68
298  56
299  53
300  48
301  60
302  51
303  56
304  54
305  49
306  57
307  44
308  53
309  58
310  62
311  52
312  51
313  40
314  37
315  54
316  51
317  67
318  57
319  57
320  54
321  60
322  45
323  57
324  52
325  46
326  53
327  36
328  38
329  38
330  33
331  53
332  57
333  46
334  51
335  51
336  42
337  40
338  44
339  37
340  56
341  43
342  48
343  46
344  63
345  47
346  43
347  30
348  49
349  29
350  48
351  41
352  52
353  42
354  39
355  47
356  42
357  47
358  64
359  42
360  48
361  55
362  53
363  43
364  50
365  41
366  41
367  40
368  61
369  43
370  45
371  41
372  46
373  44
374  39
375  43
376  37
377  47
378  35
379  49
380  49
381  50
382  34
383  37
384  49
385  51
386  42
387  46
388  48
389  46
390  43
391  53
392  37
393  37
394  49
395  55
396  51
397  41
398  59
399  48
400  50
401  44
402  44
403  43
404  53
405  51
406  48
407  50
408  56
409  51
410  39
411  42
412  49
413  50
414  54
415  49
416  41
417  56
418  56
419  62
420  43
421  53
422  53
423  45
424  39
425  55
426  54
427  56
428  48
429  57
430  58
431  46
432  56
433  52
434  41
435  51
436  43
437  36
438  47
439  60
440  44
441  43
442  48
443  50
444  55
445  55
446  37
447  44
448  63
449  47
450  54
451  44
452  42
453  50
454  43
455  46
456  42
457  45
458  44
459  51
460  51
461  51
462  42
463  44
464  50
465  52
466  52
467  43
468  44
469  52
470  45
471  43
472  48
473  53
474  56
475  57
476  45
477  39
478  42
479  52
480  61
481  68
482  46
483  41
484  41
485  45
486  54
487  65
488  45
489  48
490  50
491  49
492  50
493  43
494  51
495  53
496  35
497  51
498  40
499  46
500  56
501  43
502  50
503  48
504  41
505  45
506  35
507  42
508  36
509  53
510  48
511  45
512  48
513  47
514  36
515  45
516  44
517  41
518  53
519  46
520  39
521  38
522  42
523  33
524  43
525  38
526  22
527  36
528  35
529  29
530  30
531  26
532  38
533  29
534  32
535  20
536  26
537  19
538  24
539  30
540  24
541  21
542  19
543  22
544  29
545  25
546  23
547  19
548  19
549  24
550  20
551  20
552  23
553  24
554  18
555  14
556  19
557  21
558  22
559  19
560  26
561  17
562  22
563  22
564  14
565  30
566  17
567  12
568  18
569  17
570  19
571  19
572  18
573  26
574  22
575  24
576  16
577  23
578  24
579  20
580  28
581  19
582  34
583  36
584  20
585  26
586  18
587  26
588  21
589  37
590  32
591  31
592  35
593  36
594  45
595  35
596  45
597  45
598  50
599  55
600  58
601  58
602  51
603  53
604  66
605  58
606  53
607  56
608  61
609  54
610  65
611  53
612  51
613  83
614  75
615  77
616  68
617  78
618  91
619  77
620  75
621  83
622  79
623  89
624  77
625  73
626  77
627  86
628  77
629  85
630  72
631  94
632  70
633  74
634  74
635  76
636  58
637  77
638  60
639  70
640  56
641  74
642  51
643  62
644  49
645  51
646  41
647  48
648  47
649  42
650  42
651  43
652  39
653  37
654  34
655  19
656  30
657  31
658  24
659  30
660  22
661  24
662  18
663  18
664  19
665  16
666  10
667  17
668  9
669  6
670  14
671  8
672  12
673  4
674  12
675  15
676  9
677  5
678  5
679  7
680  6
681  4
682  5
683  2
684  4
685  1
686  4
687  3
688  4
689  4
690  1
691  6
692  4
693  6
694  2
695  4
696  4
697  5
698  3
699  3
700  3
701  2
702  3
703  0
704  1
705  3
706  3
707  3
708  4
709  2
710  3
711  3
712  1
713  2
714  2
715  3
716  4
717  4
718  0
719  0
720  2
721  1
722  0
723  3
724  2
725  6
726  3
727  2
728  4
729  5
730  1
731  2
732  3
733  2
734  2
735  2
736  0
737  1
738  1
739  0
740  3
741  2
742  3
743  0
744  3
745  3
746  2
747  2
748  1
749  4
750  3
751  0
752  1
753  0
754  3
755  2
756  1
757  1
758  3
759  1
760  0
761  1
762  0
763  1
764  1
765  0
766  0
767  1
768  1
769  1
770  2
771  0
772  1
773  0
774  1
775  1
776  0
777  1
778  0
779  0
780  4
781  0
782  1
783  1
784  1
785  1
786  2
787  2
788  1
789  2
790  3
791  3
792  0
793  1
794  1
795  1
796  1
797  1
798  1
799  1
800  1
801  3
802  0
803  3
804  2
805  0
806  4
807  2
808  3
809  20
810  11
811  19
812  10
813  14
814  44
815  92
816  39
817  20
818  0
819  0
820  0
821  0
822  0
823  0
824  0
825  0
826  0
827  0
828  0
829  0
830  0
831  0
832  0
833  0
834  0
835  0
836  0
837  0
838  0
839  0
840  0
841  0
842  0
843  0
844  0
845  0
846  0
847  0
848  0
849  0
850  0
851  0
852  0
853  0
854  0
855  0
856  0
857  0
858  0
859  0
860  0
861  0
862  0
863  0
864  0
865  0
866  0
867  0
868  0
869  0
870  0
871  0
872  0
873  0
874  0
875  0
876  0
877  0
878  0
879  0
880  0
881  0
882  0
883  0
884  0
885  0
886  0
887  0
888  0
889  0
890  0
891  0
892  0
893  0
894  0
895  0
896  0
897  0
898  0
899  0
900  0
901  0
902  0
903  0
904  0
905  0
906  0
907  0
908  0
909  0
910  0
911  0
912  0
913  0
914  0
915  0
916  0
917  0
918  0
919  0
920  0
921  0
922  0
923  0
924  0
925  0
926  0
927  0
928  0
929  0
930  0
931  0
932  0
933  0
934  0
935  0
936  0
937  0
938  0
939  0
940  0
941  0
942  0
943  0
944  0
945  0
946  3
947  2
948  3
949  1
950  2
951  2
952  0
953  2
954  0
955  0
956  0
957  0
958  1
959  0
960  1
961  0
962  0
963  0
964  1
965  1
966  0
967  1
968  0
969  1
970  1
971  1
972  3
973  0
974  1
975  1
976  1
977  1
978  2
979  1
980  2
981  1
982  0
983  0
984  1
985  0
986  1
987  1
988  3
989  2
990  1
991  3
992  2
993  4
994  5
995  4
996  6
997  6
998  4
999  12
1000  15
1001  16
1002  17
1003  14
1004  15
1005  17
1006  14
1007  20
1008  14
1009  7
1010  18
1011  14
1012  19
1013  29
1014  15
1015  22
1016  31
1017  27
1018  47
1019  46
1020  108
1021  153
1022  318
1023  1228
